2305
2291
2272
2264
2261
2270
2288
2323
2349
2366
2362
2349
2330
2318
2320
2326
2346
2377
2405
2420
2420
2407
2387
2376
2367
2374
2389
2412
2435
2451
2442
2428
2401
2381
2371
2370
2380
2403
2423
2438
2427
2408
2384
2357
2343
2338
2338
2357
2370
2377
2368
2340
2305
2272
2247
2239
2233
2243
2253
2264
2244
2219
2185
2151
2126
2113
2109
2122
2134
2140
2122
2096
2057
2025
1995
1987
1988
1999
2015
2026
2023
2003
1976
1950
1926
1918
1915
1934
1956
1975
1977
1964
1942
1919
1904
1901
1905
1926
1964
1978
1981
1969
1946
1924
1909
1906
1912
1931
1957
1981
1991
1985
1967
1946
1936
1934
1938
1961
1980
2004
2016
2006
1982
1962
1946
1950
1950
1967
1990
2015
2024
2015
1990
1971
1950
1946
1949
1963
1987
2013
2023
2015
1995
1972
1951
1950
1948
1963
1981
2006
2023
2011
1992
1973
1951
1941
1939
1954
1974
2000
2011
2000
1983
1961
1941
1933
1932
1942
1967
1994
2010
2004
1988
1971
1950
1946
1940
1948
1970
1990
2002
1997
1973
1953
1935
1928
1928
1942
1959
1984
2001
2000
1982
1962
1940
1937
1929
1942
1960
1987
2005
2005
1987
1964
1947
1940
1941
1947
1965
1992
2005
2011
1998
1979
1960
1950
1945
1952
1967
1992
2012
2020
1998
1981
1962
1958
1951
1962
1977
2002
2024
2031
2020
1997
1974
1957
1955
1962
1970
1992
2014
2024
2013
1998
1977
1966
1959
1966
1983
2010
2035
2045
2030
2010
1983
1973
1965
1976
1991
2022
2046
2058
2047
2023
2003
1987
1979
1982
2001
2019
2046
2067
2068
2058
2051
2044
2053
2062
2080
2104
2132
2148
2138
2115
2087
2067
2050
2046
2056
2072
2096
2110
2104
2084
2056
2033
2011
2003
1999
2015
2032
2038
2029
2004
1978
1959
1946
1951
1960
1983
2002
2024
2018
1998
1979
1962
1954
1960
1970
1992
2013
2030
2028
2010
1991
1973
1964
1962
1970
1987
2009
2029
2028
2017
1995
1977
1967
1966
1970
1989
2024
2074
2115
2160
2206
2272
2355
2452
2560
2681
2789
2877
2886
2784
2573
2299
2007
1744
1511
1331
1201
1127
1096
1104
1132
1192
1274
1387
1515
1653
1768
1855
1896
1906
1915
1933
1952
1988
2022
2059
2095
2128
2143
2130
2114
2093
2082
2086
2088
2110
2141
2167
2183
2178
2156
2145
2130
2128
2133
2148
2171
2200
2211
2207
2187
2169
2157
2154
2158
2180
2202
2230
2247
2235
2223
2206
2190
2187
2189
2207
2231
2261
2278
2279
2261
2250
2232
2231
2230
2248
2271
2304
2324
2327
2312
2297
2280
2271
2278
2298
2321
2354
2373
2380
2366
2352
2339
2336
2338
2354
2377
2412
2430
2440
2424
2407
2393
2383
2381
2395
2412
2441
2460
2465
2450
2431
2411
2395
2386
2366
2403
2428
2445
2448
2428
2401
2378
2363
2349
2354
2360
2375
2383
2382
2352
2323
2286
2259
2241
2234
2239
2256
2261
2257
2233
2196
2160
2136
2119
2110
2112
2126
2130
2130
2102
2067
2031
2007
1993
1988
1997
2010
2020
2021
2001
1976
1944
1926
1913
1917
1925
1949
1964
1974
1963
1951
1927
1907
1897
1903
1914
1937
1961
1973
1964
1943
1924
1906
1899
1904
1920
1946
1972
1986
1983
1964
1942
1926
1918
1919
1932
1960
1981
2000
1997
1982
1957
1943
1938
1931
1940
1965
1992
2007
2008
1987
1966
1949
1938
1938
1946
1967
1993
2009
2003
1989
1965
1946
1933
1932
1942
1964
1986
2004
2003
1985
1965
1941
1929
1925
1934
1959
1978
1999
1996
1980
1953
1930
1923
1927
1932
1953
1980
1997
1997
1987
1957
1938
1925
1922
1925
1944
1971
1990
1992
1984
1966
1940
1928
1923
1925
1945
1967
1979
2000
1986
1966
1943
1930
1924
1930
1945
1968
1995
2004
1993
1967
1944
1933
1930
1938
1956
1982
2004
2015
2006
1982
1961
1942
1938
1943
1959
1976
2001
2015
2005
1985
1966
1945
1934
1933
1949
1977
1997
2014
2011
1990
1970
1948
1943
1947
1962
1984
2011
2031
2025
1999
1978
1959
1951
1953
1966
1989
2015
2034
2028
2007
1981
1962
1959
1957
1972
1998
2029
2047
2056
2034
2014
1988
1981
1980
1983
2006
2030
2046
2051
2040
2028
2014
2015
2031
2041
2063
2097
2116
2118
2102
2085
2061
2052
2043
2053
2066
2090
2106
2105
2086
2065
2040
2027
2018
2019
2029
2044
2052
2050
2020
1993
1964
1941
1936
1947
1960
1989
2007
2023
2010
1990
1966
1955
1949
1953
1969
1996
2019
2027
2006
1984
1959
1944
1938
1950
1963
1991
2015
2027
2014
1996
1972
1960
1954
1959
1971
1994
2016
2040
2059
2084
2118
2165
2237
2330
2437
2558
2678
2778
2838
2832
2732
2540
2282
2017
1776
1571
1398
1261
1160
1098
1085
1111
1172
1258
1375
1515
1657
1772
1835
1861
1865
1870
1893
1931
1980
2038
2085
2124
2126
2112
2091
2072
2066
2066
2079
2108
2133
2154
2159
2144
2127
2116
2107
2112
2120
2146
2166
2190
2193
2181
2162
2147
2140
2137
2146
2171
2194
2217
2215
2202
2182
2169
2160
2166
2176
2203
2230
2259
2266
2254
2231
2210
2194
2190
2198
2225
2259
2287
2299
2293
2278
2258
2244
2249
2252
2274
2300
2336
2345
2345
2333
2320
2310
2312
2318
2342
2366
2396
2413
2409
2393
2375
2367
2367
2369
2392
2415
2440
2447
2440
2419
2397
2380
2370
2372
2384
2403
2423
2431
2424
2397
2370
2349
2337
2326
2334
2346
2364
2374
2358
2336
2306
2278
2261
2249
2247
2256
2274
2279
2266
2229
2190
2155
2135
2123
2124
2130
2150
2150
2139
2108
2071
2035
2013
1999
2001
2011
2029
2032
2022
1998
1971
1944
1927
1920
1919
1936
1957
1973
1972
1953
1929
1910
1896
1891
1898
1919
1947
1966
1968
1955
1937
1912
1902
1897
1906
1899
1948
1968
1976
1960
1940
1916
1907
1908
1919
1939
1966
1988
1999
1983
1969
1944
1932
1928
1928
1943
1969
1993
2002
1991
1973
1949
1935
1931
1940
1958
1979
1996
2007
1994
1973
1956
1944
1934
1936
1947
1971
1989
2003
1995
1978
1955
1941
1935
1935
1946
1970
1991
2002
1992
1974
1951
1937
1932
1933
1943
1961
1985
1996
1991
1970
1946
1929
1921
1925
1937
1959
1982
2004
1996
1979
1953
1934
1926
1930
1936
1953
1973
1993
1991
1975
1956
1937
1930
1932
1941
1965
1985
2003
1998
1980
1953
1943
1933
1935
1947
1969
1997
2018
2015
2000
1977
1961
1943
1942
1950
1972
1992
2015
2018
2008
1985
1963
1949
1946
1948
1967
1992
2018
2025
2007
1987
1970
1956
1954
1961
1985
2012
2032
2048
2033
2013
1990
1975
1974
1979
1996
2021
2046
2057
2050
2033
2021
2010
2010
2018
2044
2075
2101
2113
2110
2089
2061
2044
2039
2036
2046
2064
2082
2090
2084
2061
2041
2022
2018
2014
2026
2036
2051
2049
2034
2001
1969
1941
1927
1923
1941
1962
1989
2005
2006
1989
1962
1946
1941
1921
1949
1975
2003
2017
2015
1998
1975
1956
1950
1944
1954
1975
2001
2013
2011
1997
1972
1957
1947
1949
1965
1985
2015
2056
2089
2114
2142
2194
2262
2340
2440
2551
2669
2765
2817
2791
2669
2458
2214
1957
1725
1521
1365
1248
1170
1125
1119
1150
1206
1286
1401
1527
1668
1784
1854
1877
1886
1894
1914
1951
1990
2039
2087
2119
2130
2120
2103
2084
2071
2071
2082
2106
2135
2161
2172
2159
2146
2129
2115
2113
2121
2141
2174
2194
2210
2203
2185
2158
2145
2136
2142
2160
2187
2211
2229
2228
2211
2189
2178
2173
2178
2193
2220
2241
2258
2250
2238
2224
2209
2206
2213
2233
2255
2285
2304
2300
2286
2268
2255
2253
2261
2276
2303
2325
2346
2345
2334
2320
2308
2307
2316
2329
2353
2381
2406
2404
2391
2372
2356
2351
2355
2370
2395
2418
2440
2436
2416
2394
2375
2363
2366
2374
2391
2411
2427
2420
2398
2371
2346
2330
2321
2320
2334
2345
2360
2353
2323
2284
2264
2241
2221
2218
2227
2241
2249
2238
2219
2184
2157
2128
2115
2105
2113
2124
2133
2122
2101
2067
2030
2005
1992
1985
2000
2013
2024
2028
2008
1977
1948
1919
1910
1909
1923
1947
1969
1974
1963
1940
1917
1897
1893
1893
1915
1938
1970
1982
1974
1950
1929
1912
1909
1915
1932
1954
1981
1992
1985
1966
1945
1929
1925
1924
1945
1965
1990
2007
2003
1983
1962
1943
1932
1931
1946
1970
1994
2012
2008
1993
1972
1953
1947
1945
1957
1977
2007
2023
2017
1996
1975
1956
1950
1947
1959
1981
2009
2025
2020
1997
1978
1955
1947
1944
1955
1973
1997
2009
2005
1986
1961
1945
1935
1933
1930
1963
1990
2004
2006
1987
1963
1937
1927
1923
1933
1956
1977
1997
2000
1983
1967
1943
1934
1926
1937
1949
1975
1994
2005
1987
1967
1943
1933
1929
1939
1957
1981
2003
2013
1997
1980
1954
1943
1937
1946
1965
1992
2011
2018
2002
1982
1961
1945
1941
1945
1959
1990
2013
2024
2015
1994
1971
1957
1951
1953
1962
1994
2019
2033
2021
1999
1978
1963
1952
1953
1970
1993
2018
2036
2026
2009
1988
1975
1973
1979
1991
2014
2043
2062
2053
2036
2014
1995
1988
1990
1998
2015
2042
2066
2067
2056
2043
2035
2031
2035
2046
2073
2089
2109
2104
2086
2067
2049
2041
2040
2046
2062
2082
2100
2099
2081
2062
2041
2029
2020
2017
2027
2040
2049
2037
2009
1979
1955
1935
1938
1948
1978
2007
2028
2026
2008
1986
1965
1953
1951
1962
1981
2003
2027
2027
2012
1983
1964
1952
1949
1958
1979
2004
2027
2035
2022
2002
1979
1967
1962
1973
1990
2044
2104
2164
2217
2268
2340
2414
2513
2616
2723
2808
2844
2767
2582
2312
2030
1765
1539
1349
1214
1139
1126
1155
1191
1247
1309
1398
1509
1627
1733
1816
1877
1918
1936
1951
1970
1988
2008
2027
2057
2086
2120
2137
2134
2118
2100
2089
2089
2098
2113
2139
2167
2178
2180
2161
2143
2125
2122
2125
2139
2162
2194
2214
2215
2194
2176
2156
2147
2145
2158
2183
2216
2236
2241
2228
2207
2193
2188
2185
2199
2220
2250
2273
2276
2263
2245
2225
2222
2222
2236
2259
2290
2312
2320
2307
2294
2275
2268
2272
2281
2303
2332
2354
2365
2352
2341
2309
2323
2324
2339
2361
2394
2415
2424
2411
2391
2375
2370
2366
2375
2391
2416
2436
2444
2427
2410
2389
2378
2373
2372
2385
2403
2417
2427
2407
2384
2356
2339
2326
2317
2327
2343
2356
2358
2333
2303
2269
2244
2230
2222
2229
2241
2246
2244
2217
2187
2151
2126
2107
2095
2098
2114
2123
2120
2100
2067
2035
2011
1991
1990
1994
2011
2024
2032
2011
1988
1953
1932
1919
1918
1928
1948
1972
1991
1988
1965
1940
1924
1914
1914
1926
1950
1969
1989
1985
1956
1935
1919
1910
1912
1925
1950
1972
1995
1991
1975
1957
1941
1929
1930
1940
1971
1997
2017
2015
1997
1976
1957
1946
1945
1954
1980
2002
2023
2022
2007
1976
1962
1948
1950
1956
1980
2001
2024
2018
2000
1975
1961
1947
1947
1952
1975
1993
2013
2015
1999
1975
1957
1945
1946
1948
1971
1996
2018
2021
2009
1983
1962
1944
1941
1948
1966
1990
2012
2017
1996
1972
1953
1937
1936
1940
1958
1986
2013
2020
2004
1985
1964
1950
1947
1946
1962
1985
2010
2017
2008
1988
1968
1952
1952
1949
1963
1984
2010
2017
2010
1987
1972
1949
1943
1944
1963
1987
2010
2014
2006
1990
1966
1948
1946
1947
1966
1990
2018
2029
2027
2002
1978
1958
1948
1950
1965
1985
2014
2034
2024
2003
1984
1960
1952
1954
1969
1986
2010
2029
2026
2002
1984
1966
1961
1959
1972
1996
2024
2043
2047
2027
2011
1987
1980
1974
1983
2005
2031
2048
2052
2048
2039
2027
2026
2028
2033
2054
2074
2094
2095
2077
2061
2046
2043
2046
2050
2069
2085
2100
2097
2073
2052
2031
2015
2012
2016
2031
2044
2052
2047
2019
1988
1960
1951
1939
1950
1966
1996
2015
2023
2010
1986
1968
1954
1950
1952
1976
1996
2020
2034
2019
1997
1974
1965
1957
1961
1974
2005
2022
2028
2015
1996
1972
1961
1956
1959
1975
2010
2060
2114
2161
2207
2261
2342
2431
2535
2650
2762
2843
2849
2737
2526
2243
1943
1682
1455
1277
1154
1092
1081
1101
1143
1210
1305
1424
1550
1671
1768
1838
1894
1923
1942
1954
1972
1994
2015
2040
2074
2103
2125
2127
2112
2091
2075
2069
2078
2094
2122
2151
2173
2171
2161
2141
2128
2123
2125
2139
2165
2190
2210
2206
2194
2171
2157
2148
2150
2161
2184
2211
2233
2238
2227
2203
2193
2185
2187
2195
2218
2250
2273
2275
2262
2241
2224
2215
2219
2228
2253
2276
2303
2308
2298
2284
2272
2265
2267
2275
2306
2329
2355
2367
2363
2348
2335
2325
2328
2338
2361
2388
2416
2427
2417
2397
2383
2368
2375
2376
2399
2418
2444
2449
2437
2416
2398
2383
2376
2379
2392
2410
2429
2434
2422
2396
2373
2353
2346
2342
2349
2366
2384
2379
2364
2324
2292
2267
2249
2237
2237
2251
2258
2258
2240
2208
2172
2137
2117
2103
2101
2116
2131
2130
2112
2079
2046
2017
2001
1992
1998
2007
2021
2025
2010
1982
1954
1931
1925
1916
1926
1944
1966
1983
1979
1958
1933
1915
1904
1898
1912
1926
1953
1971
1970
1950
1934
1914
1907
1906
1918
1939
1969
1983
1980
1963
1939
1925
1910
1918
1928
1949
1974
1990
1994
1977
1958
1934
1927
1925
1933
1957
1978
1991
1997
1982
1963
1947
1938
1935
1938
1962
1983
2002
2009
1993
1974
1949
1944
1940
1950
1961
1982
2001
2008
1990
1975
1957
1947
1937
1950
1961
1986
2002
2009
1996
1975
1958
1945
1943
1948
1958
1985
2006
2015
2004
1984
1959
1943
1935
1939
1955
1979
2002
2015
2004
1982
1958
1942
1936
1940
1952
1979
1999
2009
1999
1979
1955
1942
1934
1941
1953
1979
1999
2014
2006
1984
1956
1941
1940
1947
1964
1991
2012
2028
2020
2006
1982
1964
1956
1956
1967
1983
2010
2025
2014
2001
1977
1966
1959
1960
1966
1991
2015
2033
2028
2011
1982
1972
1956
1958
1972
1994
2020
2037
2030
2013
1986
1968
1955
1960
1971
1996
2024
2050
2055
2044
2023
2006
1991
1990
1995
2013
2031
2059
2067
2063
2051
2041
2040
2040
2047
2068
2091
2112
2117
2107
2082
2065
2046
2047
2043
2059
2082
2100
2105
2092
2067
2046
2030
2022
2012
2016
2025
2038
2032
2014
1990
1962
1949
1946
1952
1967
1992
2013
2020
2009
1987
1971
1957
1953
1958
1971
1991
2017
2024
2012
1991
1973
1955
1949
1953
1967
1993
2016
2022
2013
1994
1973
1959
1951
1951
1978
2024
2082
2145
2201
2256
2326
2400
2499
2602
2716
2815
2870
2828
2671
2412
2108
1807
1554
1333
1170
1080
1053
1069
1111
1167
1246
1349
1473
1602
1710
1794
1861
1912
1941
1959
1977
1992
2014
2028
2053
2080
2115
2129
2134
2116
2100
2088
2082
2084
2097
2124
2154
2176
2180
2169
2153
2135
2128
2128
2141
2163
2193
2214
2218
2202
2188
2175
2172
2172
2180
2200
2221
2243
2247
2231
2218
2199
2196
2192
2212
2233
2262
2287
2295
2281
2262
2245
2238
2234
2245
2269
2295
2320
2332
2321
2305
2293
2285
2292
2301
2325
2359
2386
2399
2389
2371
2356
2349
2350
2363
2381
2415
2442
2458
2449
2441
2423
2415
2410
2419
2432
2457
2479
2491
2481
2467
2439
2419
2409
2408
2426
2454
2470
2478
2463
2438
2433
2390
2379
2374
2377
2396
2406
2411
2391
2363
2333
2306
2284
2280
2273
2289
2296
2301
2274
2246
2206
2175
2150
2139
2135
2147
2159
2163
2149
2117
2083
2047
2024
2014
2012
2030
2041
2052
2044
2018
1993
1974
1954
1953
1957
1974
2000
2015
2013
1993
1970
1948
1935
1939
1948
1978
2001
2026
2029
2015
1992
1975
1961
1963
1971
1998
2018
2040
2044
2034
2007
1989
1971
1967
1970
1992
2014
2045
2053
2039
2019
2002
1988
1996
1995
2019
2038
2060
2062
2050
2025
2005
1993
1995
2000
2017
2035
2057
2059
2046
2025
2003
1989
1989
1987
2008
2030
2052
2061
2054
2034
2014
1997
1995
1993
2012
2036
2058
2063
2049
2024
2007
1993
1991
1998
2007
2028
2050
2059
2049
2025
2006
1991
1992
1996
2014
2037
2061
2072
2066
2051
2029
2014
2007
2003
2018
2035
2056
2069
2067
2047
2031
2014
2009
2010
2025
2044
2067
2078
2070
2052
2032
2017
2011
2008
2022
2048
2072
2084
2081
2063
2044
2023
2020
2017
2027
2047
2072
2088
2088
2072
2051
2033
2024
2022
2033
2050
2076
2096
2095
2080
2062
2039
2033
2028
2041
2063
2097
2119
2122
2108
2087
2068
2057
2049
2062
2078
2109
2135
2151
2143
2134
2121
2116
2113
2118
2138
2160
2182
2187
2177
2165
2141
2128
2119
2123
2133
2149
2173
2175
2164
2148
2121
2105
2089
2078
2077
2096
2108
2106
2086
2061
2031
2017
2009
2016
2029
2058
2081
2095
2083
2068
2043
2028
2017
2019
2028
2057
2078
2089
2080
2067
2045
2031
2018
2021
2030
2057
2080
2096
2090
2076
2053
2034
2024
2029
2058
2113
2178
2251
2320
2381
2460
2547
2638
2740
2830
2903
2900
2795
2571
2278
1962
1679
1433
1240
1117
1070
1078
1138
1202
1276
1368
1485
1606
1719
1806
1879
1932
1988
2020
2046
2055
2068
2084
2100
2120
2147
2176
2201
2207
2196
2180
2166
2160
2166
2176
2201
2223
2253
2263
2250
2223
2206
2190
2191
2197
2218
2247
2273
2283
2276
2254
2236
2229
2230
2233
2255
2277
2303
2309
2304
2286
2272
2257
2256
2259
2279
2305
2336
2348
2341
2322
2305
2294
2298
2303
2324
2349
2377
2390
2385
2372
2355
2348
2352
2362
2388
2416
2440
2453
2455
2434
2426
2413
2411
2412
2430
2453
2490
2503
2505
2492
2474
2457
2455
2451
2470
2490
2512
2525
2524
2500
2477
2457
2448
2443
2455
2471
2493
2502
2494
2469
2438
2413
2397
2384
2391
2401
2417
2419
2410
2378
2350
2313
2295
2279
2275
2289
2296
2301
2286
2251
2215
2180
2155
2139
2133
2137
2147
2155
2141
2109
2076
2044
2020
2004
2004
2014
2026
2038
2030
2009
1985
1960
1944
1934
1945
1961
1988
2009
2012
1995
1977
1952
1937
1936
1943
1961
1985
2007
2012
1992
1973
1949
1935
1932
1940
1962
1992
2018
2030
2012
1995
1971
1964
1955
1964
1977
1998
2021
2035
2022
2001
1980
1969
1965
1967
1983
2004
2026
2035
2025
2008
1979
1965
1954
1954
1967
1997
2011
2026
2016
1998
1979
1962
1951
1956
1967
1993
2012
2023
2010
1996
1976
1955
1945
1940
1950
1972
1993
2007
2001
1983
1960
1947
1938
1943
1953
1974
1997
2008
2002
1986
1960
1944
1934
1933
1943
1965
1970
2002
1996
1980
1958
1942
1931
1937
1944
1964
1986
2004
2002
1977
1961
1942
1934
1935
1947
1971
1994
2012
2008
1990
1971
1952
1940
1944
1948
1971
1992
2011
2009
1991
1964
1947
1935
1937
1944
1968
1993
2010
2008
1991
1972
1955
1943
1946
1952
1972
1993
2013
2021
2009
1996
1980
1969
1969
1973
1992
2018
2037
2045
2030
2014
1996
1995
2007
2015
2044
2069
2090
2095
2084
2064
2050
2035
2034
2036
2052
2072
2094
2098
2083
2055
2039
2022
2019
2015
2024
2023
2042
2035
2015
1987
1956
1929
1921
1919
1937
1962
1991
1994
1988
1968
1948
1934
1932
1932
1944
1963
1986
1997
1992
1972
1950
1927
1919
1921
1938
1956
1985
1996
1995
1976
1956
1939
1931
1928
1940
1950
1982
2011
2039
2062
2098
2139
2204
2288
2391
2497
2612
2709
2769
2766
2681
2498
2261
1999
1756
1537
1348
1195
1089
1029
1017
1032
1088
1171
1276
1407
1552
1679
1774
1825
1847
1860
1884
1919
1961
2011
2060
2096
2109
2098
2083
2064
2057
2053
2068
2086
2115
2135
2148
2136
2121
2105
2101
2097
2109
2132
2159
2175
2185
2170
2153
2135
2126
2122
2137
2153
2175
2201
2211
2202
2186
2172
2161
2157
2163
2183
2208
2230
2244
2234
2222
2197
2191
2188
2199
2220
2246
2266
2283
2277
2263
2244
2234
2230
2236
2257
2289
2315
2328
2322
2308
2295
2288
2289
2298
2322
2352
2371
2386
2382
2368
2348
2346
2342
2348
2366
2391
2409
2424
2412
2398
2372
2353
2349
2352
2361
2390
2406
2417
2409
2382
2356
2327
2312
2304
2309
2324
2341
2349
2338
2312
2275
2254
2228
2221
2220
2236
2247
2256
2234
2201
2171
2141
2119
2111
2106
2115
2126
2123
2105
2071
2038
2010
1987
1976
1972
1986
1999
2010
1993
1970
1939
1911
1892
1888
1897
1916
1937
1958
1959
1940
1922
1903
1885
1884
1886
1907
1931
1949
1950
1939
1916
1902
1888
1890
1897
1915
1937
1963
1967
1955
1932
1914
1901
1899
1907
1922
1944
1965
1977
1962
1945
1924
1912
1910
1914
1935
1957
1981
1979
1965
1943
1923
1910
1910
1917
1929
1952
1974
1982
1970
1949
1932
1914
1909
1910
1933
1950
1974
1974
1967
1948
1927
1912
1904
1903
1913
1933
1959
1967
1964
1945
1922
1903
1900
1905
1917
1939
1961
1971
1966
1940
1920
1907
1904
1901
1911
1930
1949
1957
1956
1934
1915
1898
1894
1897
1910
1932
1959
1967
1963
1938
1919
1900
1890
1891
1908
1933
1961
1971
1967
1949
1931
1909
1904
1904
1920
1942
1971
1990
1993
1975
1961
1939
1929
1925
1938
1957
1981
1996
2004
1988
1972
1960
1962
1970
1986
2006
2041
2059
2067
2051
2035
2014
2000
1991
1993
2008
2031
2049
2056
2036
2017
1993
1979
1966
1962
1961
1976
1981
1983
1957
1935
1918
1906
1901
1905
1920
1947
1966
1975
1963
1943
1927
1915
1916
1922
1942
1964
1982
1993
1978
1954
1925
1912
1913
1919
1933
1956
1975
1990
1974
1955
1937
1925
1922
1920
1937
1973
2020
2070
2098
2135
2170
2231
2298
2382
2470
2561
2636
2682
2641
2516
2307
2069
1835
1622
1423
1281
1177
1124
1101
1101
1127
1171
1242
1336
1446
1576
1701
1802
1854
1876
1883
1899
1925
1962
2004
2052
2083
2106
2096
2078
2056
2045
2038
2046
2066
2089
2120
2139
2137
2124
2106
2094
2086
2091
2103
2126
2147
2170
2171
2167
2148
2139
2129
2137
2142
2163
2190
2213
2218
2206
2189
2168
2158
2162
2170
2193
2218
2246
2250
2238
2218
2206
2196
2200
2213
2240
2263
2286
2294
2283
2262
2256
2249
2255
2265
2297
2321
2349
2360
2343
2327
2313
2304
2309
2316
2345
2367
2398
2406
2400
2384
2373
2360
2362
2363
2381
2408
2426
2434
2419
2397
2377
2360
2358
2355
2371
2383
2405
2408
2395
2371
2344
2323
2316
2305
2321
2330
2342
2343
2323
2295
2266
2240
2225
2213
2218
2227
2237
2233
2210
2175
2140
2108
2096
2088
2092
2104
2113
2106
2088
2056
2022
1996
1979
1970
1976
1993
2005
2014
2003
1977
1952
1931
1921
1923
1927
1943
1963
1969
1958
1944
1924
1914
1909
1911
1923
1938
1959
1969
1968
1946
1928
1914
1911
1910
1923
1945
1967
1987
1984
1964
1942
1927
1920
1919
1935
1957
1981
2000
2000
1982
1960
1940
1928
1925
1940
1955
1983
2006
2012
1991
1975
1953
1949
1942
1953
1966
1990
2004
2011
1995
1978
1955
1943
1944
1947
1965
1988
2002
2007
1988
1971
1953
1947
1943
1949
1963
1983
1998
2007
1986
1970
1950
1941
1937
1944
1963
1982
2000
2004
1986
1962
1941
1929
1927
1938
1949
1974
1994
2006
1994
1974
1949
1938
1935
1936
1956
1977
1997
2005
1992
1976
1954
1941
1942
1945
1958
1980
2003
2013
1999
1982
1960
1945
1939
1944
1957
1983
2000
2011
2004
1991
1976
1965
1959
1961
1969
1989
2011
2023
2018
2006
1989
1982
1985
1998
2017
2045
2066
2085
2071
2052
2029
2015
2010
2014
2027
2052
2076
2094
2086
2070
2041
2023
2012
2012
2021
2039
2057
2068
2050
2019
1987
1960
1938
1935
1939
1955
1978
1995
1994
1977
1960
1941
1937
1938
1947
1971
1992
2015
2013
1995
1971
1955
1942
1938
1945
1965
1986
2008
2007
1998
1978
1959
1948
1947
1951
1968
1991
2007
2008
1995
1997
2015
2059
2116
2193
2292
2397
2514
2612
2689
2740
2754
2696
2548
2336
2100
1870
1658
1464
1285
1157
1084
1071
1109
1173
1271
1388
1523
1646
1739
1786
1814
1835
1861
1890
1939
1992
2042
2069
2071
2065
2056
2045
2049
2058
2073
2099
2121
2137
2140
2127
2112
2094
2097
2097
2116
2146
2173
2194
2193
2170
2152
2133
2128
2126
2142
2165
2192
2205
2208
2190
2175
2158
2149
2155
2169
2192
2223
2239
2249
2229
2218
2198
2189
2188
2207
2225
2255
2272
2271
2256
2244
2230
2229
2236
2257
2278
2306
2324
2327
2312
2296
2279
2274
2279
2292
2319
2348
2370
2381
2370
2361
2348
2340
2348
2360
2384
2408
2422
2428
2407
2390
2369
2360
2362
2365
2380
2406
2427
2425
2406
2385
2358
2346
2336
2337
2346
2358
2369
2366
2348
2320
2293
2268
2253
2250
2254
2272
2275
2269
2246
2214
2182
2161
2145
2136
2134
2145
2146
2144
2112
2085
2051
2026
2011
2000
2002
2023
2037
2033
2010
1979
1949
1933
1924
1925
1934
1949
1964
1966
1945
1923
1898
1887
1875
1885
1905
1933
1953
1967
1949
1931
1906
1892
1888
1892
1911
1936
1958
1976
1967
1951
1927
1915
1902
1912
1926
1945
1971
1983
1973
1956
1938
1924
1921
1924
1937
1962
1989
2007
1998
1980
1958
1946
1943
1946
1955
1975
1996
2008
2007
1991
1969
1952
1947
1949
1961
1987
2004
2022
2008
1993
1967
1948
1937
1934
1946
1969
1990
2008
2007
1993
1968
1948
1939
1942
1952
1968
1977
2003
1995
1976
1957
1943
1931
1928
1936
1959
1983
2001
2001
1980
1954
1932
1917
1916
1922
1943
1966
1990
1993
1978
1960
1940
1927
1929
1935
1954
1976
1997
1999
1993
1970
1953
1940
1936
1937
1959
1977
2005
2009
1998
1978
1958
1942
1940
1942
1960
1980
2005
2015
2006
1985
1966
1951
1949
1951
1968
1989
2015
2024
2022
2005
1992
1977
1974
1971
1985
2011
2033
2040
2035
2015
2007
1998
2005
2015
2035
2056
2086
2099
2097
2072
2056
2042
2039
2038
2051
2063
2085
2094
2087
2066
2047
2031
2024
2021
2034
2047
2059
2054
2039
2011
1983
1961
1945
1940
1953
1971
1998
2012
2008
1993
1971
1955
1945
1944
1955
1977
2007
2020
2014
2001
1983
1964
1960
1956
1969
1986
2014
2026
2026
2012
1985
1964
1953
1947
1960
1980
2002
2019
2033
2041
2060
2089
2150
2225
2323
2440
2570
2685
2780
2829
2829
2734
2560
2310
2055
1810
1591
1401
1240
1121
1057
1045
1083
1154
1252
1377
1522
1659
1762
1812
1836
1848
1873
1900
1946
1999
2058
2097
2130
2108
2104
2082
2074
2072
2082
2101
2128
2158
2173
2160
2142
2122
2112
2110
2113
2135
2161
2178
2198
2189
2177
2144
2150
2146
2151
2168
2191
2218
2233
2229
2209
2192
2184
2184
2189
2203
2230
2250
2267
2259
2249
2230
2217
2216
2224
2237
2268
2292
2307
2300
2290
2274
2264
2261
2271
2289
2314
2343
2365
2369
2361
2341
2332
2333
2336
2352
2381
2424
2431
2431
2418
2399
2386
2379
2384
2399
2424
2446
2474
2468
2451
2427
2407
2395
2395
2405
2425
2447
2466
2461
2437
2409
2387
2371
2363
2363
2374
2390
2403
2397
2377
2347
2318
2295
2281
2276
2280
2288
2296
2283
2258
2211
2188
2169
2153
2147
2150
2160
2167
2154
2127
2089
2057
2032
2019
2008
2019
2031
2046
2037
2013
1983
1961
1940
1930
1929
1937
1955
1977
1983
1969
1945
1921
1904
1898
1898
1916
1936
1962
1970
1962
1939
1924
1908
1907
1908
1928
1952
1978
1984
1979
1957
1938
1925
1924
1926
1946
1970
1992
2001
1994
1971
1955
1936
1929
1933
1946
1968
1995
2012
2007
1990
1969
1951
1948
1945
1962
1983
2008
2017
2010
1989
1966
1952
1947
1950
1959
1978
2003
2017
2010
1990
1969
1951
1945
1943
1959
1978
1999
2013
2009
1989
1967
1953
1945
1946
1955
1976
2000
2015
2012
1991
1973
1954
1946
1940
1944
1964
1990
2005
2004
1987
1965
1943
1937
1933
1941
1964
1993
2006
2010
1988
1968
1948
1934
1932
1941
1962
1989
2006
2012
2002
1984
1958
1950
1937
1944
1964
1992
2012
2018
2002
1980
1956
1943
1939
1944
1961
1990
2010
2017
2003
1983
1961
1949
1945
1952
1966
1997
2015
2030
2017
1999
1973
1967
1964
1965
1978
2005
2026
2039
2030
2011
1986
1976
1972
1977
1996
2020
2042
2050
2043
2030
2017
2009
2010
2018
2039
2064
2089
2104
2095
2077
2060
2059
2041
2045
2059
2081
2094
2101
2089
2065
2042
2030
2022
2019
2028
2046
2052
2059
2036
2012
1981
1962
1945
1937
1941
1965
1988
2010
2005
1991
1972
1956
1948
1951
1961
1984
2001
2015
2006
1991
1963
1942
1933
1937
1942
1964
1990
2012
2014
1998
1974
1951
1941
1942
1948
1970
1989
2007
2005
2008
2020
2049
2099
2168
2260
2377
2498
2632
2737
2819
2850
2825
2700
2493
2229
1959
1712
1484
1283
1120
1014
967
977
1038
1130
1254
1397
1551
1675
1752
1791
1805
1828
1858
1901
1960
2023
2075
2097
2096
2089
2072
2061
2066
2072
2089
2112
2142
2151
2151
2137
2124
2112
2107
2114
2137
2159
2187
2197
2190
2171
2154
2139
2141
2147
2167
2196
2224
2238
2228
2208
2189
2173
2171
2171
2192
2215
2246
2261
2254
2240
2228
2217
2211
2211
2233
2250
2278
2296
2295
2284
2266
2248
2247
2249
2266
2290
2323
2334
2342
2328
2317
2311
2308
2307
2322
2348
2380
2402
2409
2394
2384
2369
2368
2371
2385
2401
2432
2440
2441
2422
2401
2383
2381
2385
2400
2413
2436
2446
2450
2427
2400
2374
2357
2352
2358
2375
2395
2406
2400
2374
2342
2307
2288
2276
2275
2279
2295
2299
2285
2251
2218
2189
2173
2162
2154
2160
2168
2173
2162
2128
2101
2059
2038
2025
2023
2026
2037
2040
2043
2014
1987
1955
1935
1919
1923
1938
1958
1974
1976
1964
1940
1919
1905
1901
1901
1911
1931
1953
1960
1950
1934
1912
1902
1897
1899
1912
1932
1951
1965
1956
1938
1925
1913
1902
1908
1923
1950
1972
1985
1977
1959
1936
1925
1915
1923
1933
1952
1972
1984
1981
1962
1942
1931
1929
1934
1944
1974
2000
2009
1997
1982
1959
1934
1929
1930
1945
1973
1993
2009
2001
1984
1960
1944
1934
1931
1942
1964
1978
2001
1995
1988
1959
1943
1935
1938
1945
1966
1983
1999
1991
1977
1950
1933
1921
1917
1925
1949
1973
1988
1988
1977
1954
1940
1934
1931
1937
1952
1974
1988
1986
1972
1957
1936
1931
1930
1932
1954
1974
1995
2002
1983
1970
1952
1940
1939
1949
1962
1987
2005
2013
2007
1985
1968
1950
1947
1954
1970
1993
2018
2024
2016
1992
1967
1948
1946
1949
1971
1995
2021
2025
2013
1992
1973
1961
1958
1962
1980
2002
2027
2037
2029
2005
1986
1954
1960
1971
1996
2027
2065
2082
2082
2067
2052
2037
2035
2031
2041
2062
2087
2096
2089
2071
2044
2030
2028
2023
2027
2052
2076
2087
2075
2049
2019
1989
1977
1974
1981
1996
2014
2016
2011
1990
1967
1950
1942
1944
1963
1983
2005
2023
2023
2005
1985
1962
1959
1959
1972
1994
2020
2039
2036
2014
1989
1968
1961
1960
1972
1992
2015
2033
2034
2012
1992
1970
1969
1990
2042
2107
2185
2269
2346
2413
2473
2535
2602
2665
2711
2707
2616
2442
2212
1960
1715
1488
1316
1196
1140
1138
1191
1260
1334
1396
1471
1549
1641
1726
1783
1861
1923
1974
2021
2039
2055
2053
2061
2067
2079
2099
2122
2139
2148
2138
2122
2105
2096
2097
2109
2131
2159
2181
2199
2185
2170
2151
2139
2136
2142
2154
2182
2202
2218
2209
2192
2176
2161
2151
2157
2176
2202
2223
2240
2235
2223
2201
2186
2183
2186
2204
2234
2257
2277
2270
2257
2240
2225
2225
2237
2251
2274
2296
2315
2314
2303
2287
2279
2276
2278
2287
2307
2325
2345
2345
2341
2326
2319
2317
2326
2337
2359
2382
2405
2403
2393
2371
2357
2347
2353
2363
2384
2401
2423
2423
2407
2377
2356
2341
2339
2337
2358
2378
2395
2386
2369
2347
2318
2301
2292
2286
2301
2312
2324
2311
2285
2244
2215
2191
2176
2169
2178
2196
2211
2197
2167
2137
2102
2077
2064
2058
2067
2080
2093
2085
2061
2032
2000
1976
1972
1970
1980
1998
2018
2019
1998
1965
1933
1919
1911
1913
1931
1953
1976
1978
1964
1947
1932
1919
1916
1925
1948
1973
1993
1999
1993
1975
1956
1940
1940
1944
1961
1982
2007
2018
2009
1982
1967
1946
1944
1958
1962
1986
2014
2019
2022
1997
1982
1971
1963
1966
1979
2002
2028
2040
2032
2010
1986
1965
1957
1953
1963
1989
2026
2043
2039
2017
1998
1977
1966
1962
1972
1988
2008
2021
2021
2007
1993
1977
1969
1968
1983
2001
2026
2039
2029
2001
1974
1947
1936
1934
1946
1965
1997
2020
2024
2005
1986
1962
1952
1945
1954
1970
1990
2002
2004
1989
1972
1952
1944
1945
1957
1975
1997
2009
2010
1991
1968
1951
1945
1939
1949
1965
1991
2009
2007
1995
1976
1961
1956
1957
1964
1978
2005
2024
2030
2013
1994
1976
1966
1958
1965
1983
2011
2034
2047
2034
2011
1990
1979
1967
1978
1998
2023
2039
2048
2036
2023
2002
1998
1994
1995
2006
2026
2048
2062
2055
2042
2032
2021
2018
2027
2047
2070
2087
2096
2080
2061
2036
2030
2024
2027
2041
2059
2078
2088
2078
2057
2035
2021
2007
2002
2000
2014
2021
2026
2007
1989
1963
1951
1944
1951
1964
1986
2007
2019
2011
1994
1978
1966
1960
1964
1975
1998
2022
2036
2028
2007
1983
1965
1961
1963
1979
2002
2021
2034
2027
2010
1991
1986
1975
1971
1985
2019
2069
2130
2179
2237
2303
2380
2467
2568
2672
2771
2828
2804
2662
2431
2148
1871
1633
1426
1272
1180
1152
1177
1212
1267
1332
1404
1533
1645
1738
1810
1875
1930
1971
1989
1999
2007
2016
2047
2069
2103
2132
2157
2160
2148
2133
2119
2109
2115
2120
2140
2168
2194
2208
2207
2193
2180
2173
2173
2181
2198
2221
2246
2249
2244
2228
2215
2205
2207
2212
2235
2256
2284
2292
2288
2270
2255
2237
2239
2246
2268
2293
2321
2332
2330
2314
2293
2278
2282
2290
2311
2340
2369
2389
2383
2369
2354
2342
2348
2351
2370
2394
2427
2438
2443
2430
2412
2404
2407
2415
2434
2459
2489
2512
2516
2502
2489
2471
2466
2466
2484
2510
2540
2557
2556
2536
2518
2494
2490
2484
2495
2514
2535
2546
2544
2522
2492
2461
2448
2438
2440
2454
2474
2483
2478
2444
2411
2376
2358
2339
2339
2345
2358
2362
2354
2326
2293
2260
2237
2223
2219
2221
2237
2242
2237
2207
2179
2145
2127
2116
2115
2121
2114
2142
2142
2127
2104
2076
2064
2056
2058
2070
2098
2111
2118
2102
2086
2064
2060
2055
2061
2080
2103
2122
2118
2117
2100
2076
2069
2066
2072
2089
2117
2140
2151
2140
2126
2103
2094
2088
2092
2113
2141
2157
2172
2157
2142
2122
2110
2105
2113
2127
2148
2167
2177
2166
2154
2134
2126
2114
2122
2137
2163
2184
2201
2193
2181
2162
2147
2139
2139
2149
2179
2200
2210
2198
2176
2158
2149
2142
2146
2159
2184
2208
2221
2208
2190
2164
2151
2139
2140
2154
2175
2194
2209
2203
2190
2168
2153
2146
2148
2161
2185
2204
2223
2220
2201
2172
2161
2155
2167
2174
2197
2216
2229
2222
2204
2187
2169
2159
2164
2177
2196
2221
2240
2238
2224
2200
2186
2175
2179
2192
2210
2229
2250
2249
2231
2209
2194
2180
2181
2189
2213
2233
2256
2257
2236
2213
2200
2186
2186
2194
2218
2240
2263
2270
2265
2248
2232
2220
2215
2216
2237
2261
2282
2292
2289
2273
2263
2260
2268
2269
2296
2315
2339
2347
2344
2328
2313
2303
2300
2297
2312
2328
2353
2346
2334
2304
2285
2271
2271
2274
2287
2310
2326
2322
2299
2268
2243
2216
2203
2201
2213
2232
2255
2267
2264
2249
2228
2212
2207
2202
2220
2240
2260
2270
2264
2244
2225
2210
2201
2200
2215
2239
2265
2283
2288
2265
2244
2220
2213
2209
2219
2237
2260
2271
2270
2265
2276
2300
2345
2410
2499
2611
2733
2848
2942
3003
3046
3042
2966
2797
2570
2322
2092
1877
1679
1508
1386
1320
1308
1336
1406
1499
1619
1749
1872
1954
2012
2046
2070
2097
2140
2192
2247
2289
2321
2326
2321
2316
2320
2319
2325
2343
2363
2381
2386
2377
2364
2345
2342
2345
2353
2372
2397
2423
2438
2418
2401
2384
2373
2371
2373
2385
2413
2431
2445
2428
2410
2393
2388
2386
2396
2416
2437
2456
2463
2451
2436
2415
2404
2414
2400
2413
2445
2471
2492
2485
2475
2459
2454
2440
2441
2452
2473
2492
2510
2502
2494
2478
2477
2481
2492
2511
2540
2559
2579
2572
2557
2537
2529
2521
2530
2543
2568
2588
2610
2601
2584
2563
2551
2539
2540
2553
2571
2588
2600
2587
2568
2542
2521
2504
2500
2501
2519
2533
2540
2520
2489
2457
2439
2422
2411
2405
2416
2426
2426
2409
2376
2333
2307
2281
2269
2265
2272
2281
2286
2264
2239
2199
2164
2133
2109
2103
2117
2152
2140
2131
2110
2075
2046
2027
2021
2019
2039
2053
2066
2066
2047
2016
1997
1980
1982
1986
2007
2026
2041
2041
2029
2010
1992
1983
1979
1985
2000
2021
2040
2037
2029
2008
1994
1982
1982
1982
1999
2017
2039
2045
2039
2018
2003
1988
1986
1983
2003
2019
2041
2050
2045
2025
2012
1998
1990
1992
2005
2026
2040
2046
2035
2011
1988
1978
1972
1976
1991
2006
2027
2038
2027
2007
1983
1962
1959
1962
1976
1999
2014
2028
2017
1991
1966
1947
1942
1942
1961
1977
1997
2006
2004
1979
1958
1937
1933
1931
1946
1962
1982
1995
2006
1980
1957
1938
1934
1932
1939
1950
1970
1983
1984
1965
1945
1932
1927
1925
1937
1954
1980
1989
1985
1964
1941
1919
1913
1912
1919
1940
1965
1981
1980
1966
1947
1927
1917
1914
1923
1938
1964
1974
1976
1959
1940
1921
1911
1907
1918
1934
1955
1971
1974
1961
1942
1922
1913
1915
1922
1939
1961
1977
1978
1957
1934
1911
1907
1908
1920
1938
1960
1978
1982
1969
1950
1927
1921
1919
1927
1945
1967
1989
2025
1985
1971
1944
1933
1934
1940
1969
2002
2023
2035
2021
2011
1992
1978
1975
1975
1995
2017
2038
2050
2033
2011
1986
1969
1963
1963
1974
1996
2012
2018
2003
1968
1935
1907
1890
1881
1883
1899
1911
1927
1923
1907
1888
1876
1867
1875
1886
1902
1917
1931
1927
1909
1882
1869
1857
1862
1874
1894
1913
1928
1924
1909
1882
1870
1859
1856
1865
1885
1909
1924
1915
1899
1885
1880
1903
1949
2017
2115
2228
2345
2447
2536
2620
2695
2746
2745
2648
2462
2204
1925
1645
1379
1142
959
847
811
842
926
1040
1175
1312
1440
1542
1615
1664
1698
1732
1789
1847
1910
1948
1960
1956
1952
1943
1945
1947
1969
1996
2021
2035
2033
2016
2004
2001
2001
2006
2023
2045
2067
2076
2071
2055
2039
2025
2030
2043
2065
2093
2120
2129
2121
2101
2085
2075
2071
2078
2099
2122
2148
2158
2159
2139
2123
2106
2107
2114
2134
2159
2184
2202
2203
2185
2170
2158
2159
2165
2181
2206
2231
2249
2245
2236
2218
2211
2209
2215
2232
2262
2295
2315
2319
2307
2294
2283
2281
2288
2304
2327
2354
2369
2369
2353
2330
2310
2310
2314
2327
2348
2364
2380
2375
2356
2336
2311
2304
2289
2299
2315
2336
2348
2344
2317
2292
2261
2244
2232
2233
2237
2247
2247
2238
2207
2179
2145
2125
2109
2104
2105
2112
2117
2103
2075
2041
2011
1984
1970
1961
1962
1973
1974
1968
1942
1910
1879
1856
1842
1840
1849
1861
1878
1877
1858
1839
1816
1803
1796
1799
1812
1834
1853
1861
1846
1827
1806
1790
1789
1793
1809
1836
1855
1867
1851
1833
1816
1806
1801
1805
1819
1841
1861
1871
1864
1843
1818
1804
1799
1808
1820
1847
1871
1882
1880
1858
1836
1822
1813
1814
1825
1851
1868
1881
1865
1850
1829
1817
1809
1811
1819
1840
1861
1876
1868
1849
1831
1820
1810
1812
1819
1839
1861
1871
1865
1849
1828
1811
1803
1804
1813
1839
1858
1875
1868
1852
1828
1807
1798
1795
1802
1824
1847
1866
1864
1849
1827
1812
1801
1800
1806
1829
1855
1876
1878
1860
1833
1817
1804
1797
1802
1826
1852
1870
1873
1854
1832
1815
1808
1808
1817
1835
1856
1874
1871
1858
1834
1816
1808
1808
1810
1826
1851
1872
1879
1866
1851
1838
1825
1824
1827
1839
1855
1876
1881
1877
1861
1842
1825
1825
1826
1844
1865
1894
1899
1889
1864
1848
1838
1833
1841
1858
1882
1907
1912
1903
1885
1875
1859
1854
1854
1872
1893
1916
1930
1922
1901
1883
1870
1868
1875
1903
1931
1960
1980
1976
1959
1931
1925
1921
1920
1932
1956
1982
1993
1979
1955
1935
1917
1910
1902
1911
1930
1955
1965
1946
1914
1881
1851
1838
1828
1825
1839
1862
1877
1879
1866
1849
1831
1827
1822
1840
1860
1882
1897
1891
1875
1852
1831
1820
1821
1833
1850
1870
1890
1890
1881
1865
1845
1837
1838
1843
1866
1889
1902
1901
1879
1866
1859
1878
1917
1974
2048
2144
2252
2346
2418
2490
2543
2597
2615
2571
2443
2246
2021
1787
1541
1323
1136
1010
948
942
984
1062
1162
1264
1359
1455
1544
1627
1687
1732
1777
1825
1876
1921
1945
1956
1950
1947
1946
1954
1964
1994
2014
2027
2023
2016
2000
1998
1992
1995
2014
2032
2054
2066
2060
2047
2029
2016
2020
2026
2047
2068
2091
2106
2092
2080
2061
2047
2044
2047
2063
2090
2121
2141
2137
2127
2104
2096
2094
2103
2115
2137
2158
2171
2161
2148
2137
2128
2125
2132
2149
2176
2204
2221
2221
2212
2195
2182
2180
2186
2196
2229
2256
2281
2281
2275
2257
2251
2243
2246
2259
2281
2309
2329
2328
2310
2294
2277
2272
2278
2291
2313
2337
2352
2350
2332
2310
2290
2275
2270
2272
2289
2302
2317
2309
2288
2256
2232
2216
2205
2203
2212
2227
2237
2228
2203
2169
2138
2115
2101
2089
2099
2110
2119
2116
2091
2061
2029
2005
1985
1971
1977
1984
2000
1994
1974
1942
1916
1897
1887
1880
1893
1904
1917
1913
1894
1872
1852
1840
1841
1845
1862
1886
1908
1909
1900
1878
1853
1840
1841
1842
1861
1884
1906
1914
1898
1885
1871
1857
1857
1861
1880
1902
1928
1939
1933
1914
1896
1881
1878
1878
1891
1911
1933
1944
1935
1914
1893
1878
1879
1879
1894
1916
1939
1951
1940
1917
1903
1892
1902
1907
1919
1939
1966
1975
1971
1944
1923
1900
1895
1894
1906
1927
1949
1964
1961
1936
1915
1897
1888
1887
1898
1916
1941
1956
1951
1930
1907
1889
1880
1875
1882
1903
1924
1942
1945
1931
1910
1891
1886
1882
1894
1912
1931
1951
1951
1935
1911
1897
1890
1893
1901
1923
1948
1965
1970
1950
1923
1901
1893
1889
1900
1917
1937
1957
1962
1946
1932
1911
1908
1906
1910
1923
1948
1964
1974
1958
1938
1922
1913
1907
1913
1934
1957
1978
1991
1979
1964
1945
1935
1934
1938
1949
1971
1994
2002
1994
1978
1966
1959
1961
1972
1990
2021
2047
2066
2059
2036
2016
2006
2005
2008
2025
2047
2060
2068
2055
2036
2018
2001
1993
1990
1995
2006
2016
2018
2002
1976
1945
1921
1911
1910
1919
1942
1967
1989
1981
1970
1950
1930
1924
1925
1936
1958
1987
2003
2000
1985
1960
1948
1938
1943
1939
1965
1986
2002
1995
1983
1959
1947
1935
1936
1946
1965
1991
2011
2029
2048
2073
2112
2168
2246
2339
2442
2546
2643
2711
2737
2709
2600
2414
2191
1964
1756
1569
1412
1282
1193
1146
1143
1159
1218
1308
1423
1551
1675
1775
1833
1859
1872
1891
1919
1958
2015
2069
2112
2119
2111
2088
2071
2057
2061
2069
2099
2124
2153
2162
2151
2131
2114
2102
2100
2103
2120
2145
2173
2179
2178
2166
2151
2139
2140
2144
2160
2177
2201
2206
2197
2176
2170
2166
2172
2178
2195
2213
2234
2237
2233
2216
2203
2192
2196
2199
2220
2241
2272
2285
2287
2268
2252
2244
2246
2253
2273
2300
2330
2347
2339
2326
2310
2298
2297
2298
2320
2346
2375
2384
2385
2368
2351
2337
2335
2340
2359
2382
2415
2429
2426
2410
2394
2378
2376
2377
2383
2402
2424
2433
2426
2404
2379
2354
2342
2336
2341
2354
2372
2381
2374
2347
2318
2288
2269
2254
2253
2259
2275
2285
2280
2252
2227
2191
2169
2148
2142
2142
2156
2156
2150
2122
2091
2063
2043
2032
2026
2033
2047
2059
2050
2021
1998
1973
1960
1952
1954
1971
1988
2003
2004
1983
1961
1939
1932
1934
1947
1963
1984
2002
2008
1989
1969
1945
1935
1932
1938
1955
1976
2001
2013
2005
1989
1964
1953
1947
1954
1972
2000
2014
2023
2010
1994
1971
1958
1957
1965
1985
2016
2041
2053
2037
2012
1990
1979
1972
1979
1994
2019
2038
2052
2039
2018
1998
1983
1975
1977
1984
2009
2028
2041
2034
2022
1998
1987
1981
1980
1992
2010
2029
2036
2025
2008
1980
1963
1956
1959
1970
1999
2020
2034
2022
2001
1975
1958
1949
1955
1969
1991
2014
2031
2026
2003
1980
1965
1956
1953
1962
1987
2012
2028
2021
2001
1979
1967
1954
1960
1969
1991
2005
2027
2023
2011
1985
1971
1957
1959
1967
1992
2012
2033
2031
2019
1998
1981
1973
1972
1982
1997
2015
2034
2027
2013
1994
1975
1966
1971
1980
2004
2028
2050
2052
2040
2023
2008
1994
1991
1996
2008
2030
2055
2066
2056
2038
1982
2015
2023
2022
2044
2069
2091
2100
2091
2069
2053
2038
2036
2035
2049
2073
2094
2102
2096
2074
2055
2033
2029
2020
2025
2032
2040
2036
2017
1995
1966
1947
1947
1951
1970
1994
2019
2027
2016
1998
1972
1955
1954
1958
1972
1998
2021
2026
2022
1998
1978
1962
1954
1957
1972
1998
2014
2028
2025
2008
1990
1969
1961
1960
1971
2003
2050
2099
2145
2182
2242
2313
2404
2502
2609
2711
2804
2840
2772
2595
2344
2054
1792
1563
1371
1233
1157
1132
1147
1175
1224
1292
1398
1521
1642
1750
1835
1893
1928
1943
1953
1961
1989
2012
2037
2069
2099
2117
2118
2102
2091
2072
2072
2076
2086
2108
2134
2150
2160
2144
2130
2117
2115
2124
2134
2149
2172
2189
2192
2176
2158
2137
2125
2129
2146
2177
2207
2226
2228
2212
2200
2185
2177
2174
2183
2193
2218
2241
2256
2251
2237
2220
2211
2209
2213
2231
2265
2290
2305
2293
2275
2257
2251
2251
2258
2276
2307
2333
2354
2349
2339
2323
2315
2308
2318
2338
2369
2380
2407
2405
2389
2371
2362
2363
2369
2381
2409
2439
2453
2460
2426
2401
2380
2371
2369
2375
2402
2419
2430
2416
2395
2365
2347
2333
2331
2332
2352
2365
2374
2353
2327
2288
2263
2236
2228
2225
2235
2243
2248
2231
2209
2176
2143
2120
2106
2100
2101
2110
2115
2100
2090
2043
2013
1988
1973
1971
1983
2002
2016
2008
1986
1960
1936
1921
1916
1914
1934
1955
1975
1976
1968
1939
1918
1911
1903
1908
1933
1950
1962
1969
1958
1939
1928
1919
1913
1919
1940
1961
1978
1980
1969
1946
1934
1923
1929
1931
1948
1965
1987
1986
1978
1955
1941
1927
1927
1936
1952
1978
2002
2005
1993
1973
1961
1950
1949
1958
1974
1993
2009
2017
1999
1972
1954
1934
1932
1937
1957
1982
2012
2019
2016
1992
1970
1956
1947
1943
1959
1981
1998
2003
1992
1963
1950
1935
1935
1941
1953
1975
1996
2003
1995
1975
1952
1940
1933
1935
1949
1968
1989
2001
1998
1975
1958
1941
1938
1945
1954
1973
1995
2010
2004
1985
1963
1946
1944
1946
1956
1976
1999
2023
2017
2002
1978
1950
1944
1945
1957
1979
2002
2020
2021
2003
1989
1974
1968
1964
1973
1995
2017
2031
2035
2018
1997
1976
1966
1963
1970
1988
2012
2028
2037
2026
2012
2000
1993
1993
1991
2005
2029
2044
2063
2031
2014
2001
1999
2004
2019
2043
2065
2077
2077
2063
2040
2007
2007
2005
2017
2041
2064
2088
2093
2075
2049
2024
2009
2006
2013
2031
2053
2070
2069
2039
2007
1970
1942
1933
1933
1948
1965
1993
2000
1988
1975
1962
1949
1946
1951
1959
1981
2000
2013
2002
1983
1963
1952
1942
1941
1955
1979
2001
2012
2003
1991
1973
1962
1951
1951
1959
1985
2011
2026
2025
2025
2029
2056
2103
2172
2263
2376
2496
2612
2707
2777
2795
2743
2606
2397
2142
1903
1689
1490
1306
1160
1071
1042
1058
1119
1215
1345
1496
1642
1746
1803
1836
1855
1880
1917
1945
1992
2038
2077
2088
2084
2075
2063
2055
2064
2071
2096
2121
2147
2152
2141
2119
2109
2103
2106
2119
2143
2163
2185
2188
2180
2161
2138
2138
2144
2149
2171
2193
2219
2229
2217
2204
2184
2171
2172
2175
2192
2214
2239
2263
2242
2230
2217
2212
2208
2217
2238
2263
2286
2295
2283
2264
2247
2239
2247
2259
2287
2310
2339
2347
2334
2313
2301
2292
2299
2306
2331
2360
2388
2397
2392
2377
2362
2350
2349
2356
2378
2404
2437
2452
2450
2425
2409
2390
2386
2389
2407
2429
2449
2456
2451
2425
2402
2374
2365
2359
2369
2385
2407
2412
2396
2373
2345
2318
2308
2295
2301
2305
2322
2329
2314
2282
2245
2211
2187
2171
2167
2176
2188
2190
2180
2148
2119
2085
2064
2052
2046
2050
2065
2074
2061
2033
2012
1987
1977
1972
1977
1992
2011
2022
2019
1996
1973
1950
1943
1940
1953
1974
1999
2008
1999
1980
1956
1937
1931
1933
1948
1965
1988
2002
2007
1990
1975
1948
1940
1941
1945
1964
1990
2012
2018
2006
2001
1968
1953
1950
1960
1977
2007
2031
2035
2025
2000
1976
1966
1958
1978
1975
1999
2017
2020
2009
1991
1969
1960
1959
1976
2000
2022
2038
2048
2031
2009
1983
1968
1963
1964
1979
2004
2026
2039
2026
2009
1988
1972
1959
1955
1956
1976
2002
2022
2012
2003
1983
1970
1961
1971
1981
2007
2016
2041
2025
2005
1982
1965
1960
1959
1969
1993
2015
2026
2021
2003
1976
1963
1953
1956
1967
1989
2014
2032
2027
2012
1984
1964
1957
1959
1963
1985
2004
2028
2026
2008
1982
1965
1959
1956
1964
1982
2006
2026
2027
2019
1996
1978
1964
1963
1970
1992
2016
2037
2034
2016
1998
1988
1980
1987
1997
2020
2042
2059
2057
2041
2016
2000
1994
1995
2005
2029
2055
2079
2089
2085
2070
2059
2049
2048
2056
2076
2101
2126
2127
2117
2100
2080
2065
2059
2063
2073
2095
2121
2124
2112
2086
2057
2036
2019
2009
2021
2034
2051
2050
2033
2001
1977
1959
1957
1959
1972
2003
2023
2031
2026
2008
1989
1975
1971
1973
1985
2003
2025
2031
2023
2000
1976
1960
1957
1963
1978
2004
2027
2032
2027
2007
1988
1972
1968
1968
2000
2042
2113
2177
2240
2294
2359
2431
2522
2617
2713
2799
2838
2772
2601
2341
2060
1787
1545
1339
1192
1108
1090
1118
1158
1210
1282
1371
1484
1599
1699
1787
1857
1911
1947
1968
1989
2007
2025
2044
2067
2090
2121
2137
2140
2128
2113
2096
2096
2091
2106
2130
2157
2178
2188
2175
2159
2140
2135
2129
2141
2162
2188
2210
2200
2205
2189
2172
2163
2159
2168
2184
2215
2237
2249
2235
2219
2197
2188
2188
2200
2220
2249
2277
2285
2272
2259
2238
2231
2232
2247
2268
2296
2322
2336
2327
2311
2294
2286
2286
2297
2308
2338
2365
2383
2381
2372
2357
2350
2350
2356
2372
2400
2425
2443
2437
2425
2404
2397
2388
2393
2405
2436
2458
2472
2464
2450
2423
2411
2398
2397
2401
2424
2444
2451
2440
2413
2386
2363
2348
2342
2346
2362
2373
2380
2366
2340
2309
2278
2257
2243
2237
2243
2251
2257
2242
2213
2179
2149
2131
2117
2112
2117
2119
2120
2112
2086
2052
2019
1996
1981
1975
1979
1995
2012
2004
1983
1957
1934
1924
1917
1914
1928
1950
1969
1971
1956
1935
1922
1910
1912
1915
1934
1955
1972
1975
1958
1939
1922
1908
1906
1913
1934
1956
1976
1985
1975
1961
1944
1934
1932
1934
1949
1966
1988
1994
1988
1970
1947
1931
1927
1926
1943
1966
1993
2002
1992
1967
1949
1936
1932
1939
1954
1973
1995
1999
1992
1969
1947
1936
1933
1936
1951
1971
1990
1999
1988
1965
1941
1922
1916
1920
1934
1952
1975
1981
1978
1954
1934
1915
1911
1906
1917
1940
1966
1976
1973
1951
1927
1908
1900
1899
1913
1936
1967
1988
1984
1965
1941
1924
1914
1911
1918
1937
1958
1976
1981
1960
1944
1922
1915
1913
1924
1940
1968
1985
1990
1967
1940
1922
1910
1912
1926
1950
1979
1997
2000
1981
1964
1944
1932
1931
1937
1953
1988
1989
1998
1985
1970
1954
1950
1949
1961
1980
2000
2021
2025
2008
1987
1963
1954
1956
1964
1988
2018
2047
2065
2060
2050
2026
2021
2019
2026
2041
2065
2082
2096
2073
2052
2026
2013
2003
2009
2020
2042
2063
2073
2052
2021
1991
1967
1945
1937
1939
1958
1970
1984
1974
1957
1936
1926
1922
1933
1947
1967
1991
2002
1995
1958
1947
1930
1925
1928
1936
1956
1980
2000
1996
1971
1950
1934
1921
1925
1933
1958
1979
2000
1993
1977
1957
1951
1971
2012
2068
2143
2239
2334
2414
2487
2551
2613
2667
2697
2670
2563
2378
2156
1915
1663
1426
1234
1105
1039
1036
1084
1160
1251
1337
1419
1505
1600
1680
1752
1803
1864
1913
1971
2014
2040
2044
2041
2045
2049
2053
2070
2091
2112
2119
2112
2096
2087
2077
2074
2078
2097
2120
2153
2166
2164
2144
2131
2117
2117
2122
2142
2160
2177
2188
2183
2157
2140
2128
2131
2140
2161
2186
2214
2228
2225
2206
2192
2184
2182
2178
2196
2216
2245
2256
2256
2245
2234
2220
2219
2219
2240
2257
2287
2303
2305
2288
2274
2262
2266
2271
2293
2320
2352
2374
2375
2362
2344
2331
2329
2328
2343
2365
2391
2408
2408
2388
2372
2351
2349
2347
2365
2386
2409
2421
2420
2397
2372
2354
2347
2343
2353
2362
2376
2385
2380
2355
2329
2307
2287
2276
2280
2285
2298
2304
2294
2266
2235
2200
2175
2159
2156
2161
2174
2180
2168
2135
2103
2076
2051
2033
2026
2027
2044
2051
2050
2018
1986
1956
1934
1926
1926
1933
1947
1960
1957
1935
1915
1891
1873
1868
1871
1889
1912
1928
1939
1931
1913
1897
1886
1889
1898
1910
1932
1948
1952
1936
1915
1900
1895
1895
1901
1919
1939
1960
1970
1957
1940
1917
1903
1894
1894
1908
1932
1959
1974
1970
1955
1936
1926
1921
1923
1930
1951
1970
1983
1979
1957
1935
1922
1916
1919
1931
1949
1968
1977
1981
1961
1937
1922
1911
1912
1919
1942
1965
1980
1975
1957
1934
1918
1910
1908
1916
1932
1954
1973
1969
1954
1936
1917
1912
1909
1917
1933
1957
1970
1965
1953
1935
1918
1909
1911
1918
1936
1957
1976
1975
1959
1938
1924
1912
1913
1919
1943
1967
1986
1985
1971
1948
1925
1911
1915
1922
1942
1970
1993
2006
1989
1970
1949
1937
1932
1941
1961
1986
2009
2019
2003
1995
1981
1968
1976
1984
2008
2034
2058
2065
2058
2033
2015
2001
1998
2005
2021
2043
2065
2068
2060
2038
2011
1991
1974
1963
1966
1976
1993
1993
1979
1951
1924
1909
1903
1898
1922
1949
1978
1988
1985
1961
1939
1923
1922
1925
1937
1958
1981
1990
1990
1972
1952
1935
1926
1924
1933
1951
1975
1994
1994
1974
1955
1934
1925
1921
1933
1967
2019
2071
2116
2153
2196
2252
2327
2408
2493
2582
2665
2707
2683
2556
2354
2108
1868
1641
1448
1297
1203
1155
1140
1147
1169
1208
1276
1364
1470
1592
1711
1805
1859
1879
1893
1906
1937
1973
2009
2049
2082
2101
2112
2098
2080
2060
2052
2052
2067
2088
2114
2140
2151
2140
2124
2104
2091
2090
2099
2116
2145
2172
2181
2172
2155
2134
2124
2123
2130
2142
2173
2196
2213
2203
2185
2171
2159
2162
2168
2183
2209
2230
2247
2234
2225
2206
2200
2202
2207
2225
2250
2273
2289
2284
2274
2254
2243
2237
2251
2262
2294
2320
2339
2334
2321
2308
2300
2298
2312
2322
2350
2377
2400
2397
2382
2367
2351
2353
2356
2368
2390
2418
2416
2431
2417
2391
2375
2362
2362
2371
2390
2409
2423
2412
2392
2364
2336
2325
2318
2315
2331
2344
2354
2339
2314
2280
2252
2228
2220
2214
2224
2231
2231
2217
2169
2156
2125
2105
2092
2081
2088
2099
2104
2092
2067
2040
2006
1981
1970
1965
1974
1993
2007
2001
1980
1951
1927
1913
1909
1910
1925
1945
1967
1973
1962
1941
1923
1903
1892
1904
1922
1942
1966
1974
1967
1952
1934
1923
1919
1921
1940
1961
1983
1989
1977
1957
1945
1936
1935
1937
1949
1975
1995
2001
1989
1969
1951
1940
1942
1940
1957
1977
2004
2013
2006
1983
1964
1952
1945
1943
1934
1982
2008
2018
2009
1992
1968
1951
1946
1943
1953
1978
1998
2011
2005
1986
1961
1945
1942
1936
1946
1967
1981
1991
1994
1975
1956
1937
1937
1932
1941
1960
1986
2000
2000
1980
1956
1937
1933
1929
1935
1954
1980
1994
1999
1978
1960
1943
1936
1940
1948
1967
1989
2001
2004
1982
1968
1947
1941
1936
1943
1964
1987
2008
2014
1999
1982
1959
1951
1952
1959
1974
1999
2016
2025
2008
1987
1967
1960
1959
1974
2004
2035
2062
2068
2054
2038
2019
2008
2003
2013
2035
2061
2081
2088
2067
2047
2030
2018
2012
2016
2030
2052
2061
2058
2033
2000
1970
1943
1926
1921
1928
1950
1971
1987
1980
1970
1948
1936
1933
1937
1950
1973
1995
2005
1997
1973
1957
1940
1932
1934
1952
1969
1992
2004
1997
1980
1958
1946
1937
1936
1950
1974
1990
2002
2005
1994
1993
2014
2050
2113
2191
2300
2416
2533
2627
2704
2750
2771
2730
2603
2400
2175
1934
1704
1476
1280
1130
1045
1014
1046
1120
1219
1332
1458
1574
1663
1731
1771
1796
1826
1864
1923
1986
2039
2070
2064
2060
2052
2045
2051
2064
2082
2109
2137
2142
2133
2112
2098
2085
2092
2102
2132
2156
2180
2190
2175
2158
2142
2132
2133
2138
2155
2175
2195
2201
2194
2177
2160
2154
2154
2159
2179
2202
2227
2237
2231
2214
2203
2190
2189
2192
2217
2241
2268
2281
2278
2261
2244
2230
2239
2242
2263
2286
2314
2329
2329
2315
2301
2291
2296
2303
2323
2349
2378
2399
2400
2385
2366
2352
2354
2357
2375
2402
2427
2442
2439
2425
2409
2390
2392
2390
2401
2422
2445
2453
2445
2417
2396
2373
2360
2359
2369
2377
2389
2396
2383
2354
2331
2305
2285
2276
2281
2284
2301
2301
2287
2252
2221
2186
2164
2146
2145
2147
2154
2153
2142
2116
2082
2051
2031
2016
2017
2024
2030
2029
2022
1994
1968
1944
1931
1921
1926
1939
1955
1970
1970
1950
1926
1905
1893
1888
1899
1915
1943
1960
1968
1946
1930
1910
1899
1895
1901
1916
1941
1960
1965
1954
1934
1921
1915
1914
1919
1930
1955
1971
1980
1969
1952
1933
1924
1918
1921
1936
1964
1987
1998
1984
1966
1948
1930
1928
1929
1945
1969
1989
1999
1991
1969
1944
1929
1924
1928
1940
1969
1988
2007
1994
1978
1954
1938
1931
1932
1937
1959
1982
1998
1990
1968
1944
1928
1919
1925
1932
1955
1977
1993
1986
1967
1942
1926
1919
1919
1929
1953
1971
1993
1988
1967
1943
1934
1921
1923
1930
1950
1970
1990
1989
1972
1953
1941
1933
1928
1928
1948
1973
1993
1993
1976
1957
1943
1934
1933
1945
1965
1988
2011
2016
1997
1978
1959
1950
1950
1957
1974
1998
2019
2024
2017
2005
1990
1992
1993
1999
2023
2048
2068
2073
2057
2038
2023
2007
2002
2008
2021
2045
2068
2070
2060
2037
2015
1993
1980
1969
1972
1985
1998
1998
1985
1955
1932
1912
1905
1911
1927
1951
1973
1985
1981
1962
1943
1928
1923
1922
1937
1953
1981
1993
1985
1966
1949
1930
1925
1925
1940
1962
1986
1999
1994
1972
1960
1938
1936
1932
1950
1987
2040
2096
2144
2186
2241
2309
2390
2484
2588
2691
2775
2803
2731
2548
2301
2035
1788
1557
1374
1243
1169
1143
1149
1169
1211
1264
1342
1444
1555
1676
1781
1854
1899
1912
1922
1937
1961
1994
2028
2063
2096
2122
2125
2112
2096
2073
2064
2070
2073
2095
2127
2156
2162
2156
2140
2120
2108
2109
2119
2134
2134
2178
2190
2181
2158
2134
2126
2122
2132
2151
2177
2201
2217
2207
2193
2175
2164
2164
2174
2192
2215
2243
2252
2246
2233
2209
2196
2199
2214
2228
2257
2282
2304
2301
2289
2270
2259
2257
2265
2279
2304
2332
2353
2352
2340
2321
2319
2317
2324
2339
2366
2392
2413
2412
2397
2380
2367
2360
2366
2383
2406
2427
2449
2444
2424
2399
2378
2365
2367
2376
2397
2412
2431
2416
2397
2372
2350
2330
2323
2319
2332
2346
2356
2346
2323
2292
2261
2242
2228
2217
2225
2235
2241
2226
2195
2159
2133
2103
2093
2088
2098
2104
2114
2098
2073
2037
2009
1983
1977
1971
1976
1989
2008
1999
1981
1953
1931
1913
1907
1907
1926
1944
1971
1973
1964
1937
1915
1895
1890
1894
1916
1931
1955
1963
1954
1931
1913
1898
1896
1897
1918
1939
1966
1979
1967
1950
1932
1914
1915
1913
1926
1953
1977
1989
1985
1964
1944
1927
1924
1925
1940
1965
1985
2000
1998
1975
1956
1939
1938
1933
1940
1965
1987
2001
1997
1978
1957
1939
1936
1935
1947
1968
1985
2000
1993
1978
1955
1941
1934
1931
1942
1958
1982
1991
1988
1972
1949
1933
1932
1925
1938
1954
1979
1997
1998
1977
1956
1931
1924
1924
1930
1947
1969
1989
1990
1974
1968
1933
1922
1922
1931
1948
1972
1995
1999
1980
1963
1945
1934
1932
1936
1954
1980
1994
1998
1983
1967
1948
1940
1936
1943
1957
1983
2001
2009
1993
1973
1953
1941
1938
1945
1964
1992
2015
2027
2021
2005
1984
1970
1971
1979
1995
2016
2036
2047
2037
2024
2007
2001
2001
2015
2030
2057
2080
2088
2076
2056
2038
2029
2025
2031
2039
2065
2083
2093
2074
2061
2037
2019
2009
2010
2013
2028
2038
2038
2016
1988
1955
1932
1921
1923
1935
1963
1988
2005
1999
1979
1953
1933
1929
1932
1943
1963
1987
1997
1996
1978
1959
1940
1929
1931
1941
1960
1985
2003
1998
1979
1958
1939
1930
1930
1940
1960
1982
2003
2020
2048
2078
2131
2198
2290
2394
2511
2635
2752
2831
2853
2795
2637
2397
2126
1859
1626
1418
1250
1126
1045
1021
1047
1105
1197
1311
1455
1599
1732
1812
1843
1857
1867
1891
1921
1962
2011
2060
2097
2116
2107
2089
2074
2062
2058
2062
2083
2113
2143
2152
2145
2129
2118
2104
2098
2105
2127
2149
2181
2186
2180
2159
2140
2131
2125
2131
2149
2175
2199
2219
2213
2198
2181
2158
2156
2165
2189
2216
2240
2251
2250
2232
2216
2198
2197
2202
2220
2218
2270
2288
2288
2273
2258
2244
2242
2247
2265
2290
2322
2337
2343
2328
2312
2298
2296
2300
2319
2349
2378
2395
2403
2392
2380
2367
2364
2365
2380
2402
2431
2446
2451
2437
2422
2408
2403
2406
2413
2428
2448
2458
2456
2431
2408
2382
2367
2357
2355
2370
2388
2399
2393
2367
2340
2307
2287
2275
2267
2275
2287
2284
2280
2249
2214
2178
2153
2134
2129
2134
2150
2155
2145
2118
2087
2047
2024
2003
1998
1998
2010
2022
2024
2002
1974
1943
1926
1914
1917
1924
1946
1961
1966
1950
1926
1901
1888
1889
1888
1900
1927
1948
1960
1948
1934
1911
1894
1889
1896
1905
1926
1950
1964
1949
1932
1907
1896
1888
1891
1907
1930
1957
1970
1965
1946
1934
1919
1917
1922
1933
1957
1979
1993
1983
1965
1942
1927
1920
1923
1933
1985
1979
1992
1993
1973
1951
1934
1922
1928
1935
1961
2015
2000
1995
1981
1958
1946
1924
1924
1930
1952
1974
1995
1995
1976
1956
1932
1920
1918
1922
1939
1958
1981
1981
1969
1946
1927
1919
1917
1919
1944
1967
1990
1989
1972
1953
1935
1921
1922
1930
1950
1967
1974
1995
1984
1963
1945
1933
1931
1930
1953
1975
1994
1996
1989
1967
1948
1935
1931
1936
1949
1973
1994
2006
1994
1971
1957
1938
1937
1936
1952
1974
2001
2004
1994
1972
1946
1934
1934
1941
1955
1981
2005
2015
2001
1981
1963
1947
1944
1947
1959
1977
2003
2015
2007
1989
1968
1957
1958
1961
1979
2002
2023
2033
2026
2006
1987
1969
1966
1967
1985
2020
2058
2079
2082
2069
2041
2026
2018
2019
2036
2056
2084
2099
2100
2084
2057
2030
2020
2014
2021
2038
2058
2086
2081
2058
2032
2003
1979
1963
1958
1964
1978
1991
1989
1972
1954
1932
1926
1918
1929
1946
1977
1996
2004
1984
1964
1950
1945
1933
1940
1955
1976
1995
2002
1984
1966
1945
1936
1932
1937
1957
1984
2004
2014
1999
1980
1958
1945
1935
1950
1989
2056
2129
2206
2280
2359
2441
2541
2643
2745
2830
2880
2837
2678
2415
2100
1786
1512
1287
1118
1022
995
1027
1096
1165
1251
1347
1466
1585
1689
1765
1827
1878
1924
1949
1975
1992
2009
2018
2034
2055
2081
2106
2121
2117
2104
2085
2068
2066
2073
2086
2117
2143
2169
2166
2156
2132
2120
2110
2116
2130
2153
2178
2197
2193
2180
2160
2144
2139
2139
2151
2180
2202
2228
2225
2212
2196
2182
2177
2180
2192
2218
2247
2276
2279
2268
2252
2227
2218
2224
2233
2260
2290
2311
2323
2315
2292
2277
2268
2278
2287
2318
2348
2374
2384
2377
2361
2349
2343
2347
2361
2383
2412
2440
2449
2442
2423
2410
2397
2395
2398
2420
2447
2473
2484
2477
2455
2429
2407
2397
2399
2412
2433
2457
2455
2441
2409
2381
2360
2357
2345
2352
2366
2384
2382
2362
2327
2294
2263
2241
2224
2223
2228
2241
2237
2219
2182
2150
2118
2103
2090
2087
2095
2106
2107
2085
2052
2019
1991
1974
1961
1963
1973
1990
1992
1980
1960
1933
1901
1902
1895
1901
1922
1944
1957
1951
1928
1904
1887
1876
1878
1889
1902
1928
1944
1949
1928
1913
1895
1888
1886
1895
1914
1939
1959
1958
1943
1927
1909
1901
1900
1910
1928
1952
1966
1966
1945
1922
1908
1903
1909
1922
1941
1966
1986
1981
1971
1950
1931
1919
1916
1926
1937
1965
1982
1990
1971
1950
1925
1909
1904
1909
1930
1958
1978
1992
1975
1956
1934
1917
1906
1910
1928
1949
1972
1982
1965
1941
1917
1907
1901
1904
1919
1948
1966
1975
1964
1946
1927
1919
1912
1922
1930
1958
1983
1991
1978
1953
1929
1915
1910
1911
1925
1954
1975
1995
1985
1961
1935
1922
1911
1919
1929
1949
1970
1978
1977
1960
1937
1924
1914
1917
1932
1958
1983
1998
1992
1974
1950
1926
1918
1919
1929
1958
1979
2001
1999
1979
1950
1930
1923
1930
1937
1962
1988
2010
2015
1998
1974
1958
1944
1949
1954
1979
2000
2024
2029
2016
1995
1986
1985
1991
2000
2031
2052
2071
2074
2061
2039
2022
2012
2005
2004
2030
2045
2065
2064
2052
2021
2007
1983
1981
1972
1986
1998
2008
2001
1976
1953
1929
1916
1918
1928
1948
1980
2000
2003
1986
1967
1942
1929
1929
1930
1945
1968
1987
1992
1983
1960
1940
1926
1924
1929
1948
1973
1992
2006
1998
1976
1960
1942
1936
1939
1952
1976
2004
2031
2058
2083
2121
2162
2232
2307
2402
2508
2610
2693
2742
2727
2624
2438
2210
1976
1766
1576
1415
1296
1198
1136
1116
1131
1178
1250
1357
1485
1622
1744
1814
1852
1869
1877
1897
1926
1965
2018
2061
2094
2097
2082
2067
2051
2051
2049
2064
2092
2117
2135
2137
2122
2103
2088
2083
2086
2103
2128
2156
2172
2176
2162
2140
2122
2113
2115
2127
2152
2180
2200
2206
2193
2180
2164
2153
2149
2162
2182
2211
2229
2240
2228
2213
2193
2184
2186
2196
2219
2252
2270
2281
2269
2259
2238
2231
2230
2244
2264
2296
2319
2332
2327
2319
2303
2290
2288
2301
2325
2352
2376
2382
2375
2362
2346
2343
2341
2348
2363
2393
2418
2435
2422
2406
2377
2359
2344
2348
2360
2391
2406
2414
2402
2383
2356
2333
2318
2313
2314
2337
2353
2362
2351
2326
2296
2271
2252
2246
2244
2252
2260
2260
2242
2210
2175
2149
2130
2118
2113
2123
2130
2136
2119
2091
2057
2022
2004
1996
1988
2002
2014
2025
2013
1990
1962
1936
1918
1915
1914
1933
1944
1964
1962
1947
1925
1913
1898
1904
1905
1923
1936
1951
1954
1940
1919
1899
1891
1896
1903
1922
1951
1971
1979
1964
1941
1925
1908
1913
1919
1944
1971
1992
1995
1984
1961
1943
1932
1929
1931
1948
1970
1990
2000
1983
1976
1955
1942
1940
1946
1960
1983
2009
2019
2011
1988
1964
1948
1946
1949
1959
1975
2003
2013
2006
1981
1962
1947
1946
1948
1958
1978
1995
2009
2001
1977
1956
1936
1926
1928
1941
1968
1997
2010
2004
1981
1958
1935
1933
1931
1940
1964
1989
2008
2004
1989
1969
1950
1934
1929
1943
1965
1991
2011
2009
1990
1975
1954
1944
1939
1944
1962
1990
2011
2014
1998
1973
1952
1947
1944
1958
1979
2009
2030
2036
2014
1994
1967
1969
1960
1970
1990
2015
2035
2041
2026
2019
2001
2003
2003
2017
2040
2068
2088
2096
2080
2062
2045
2033
2028
2037
2045
2067
2080
2082
2063
2041
2017
2008
2000
2005
2012
2029
2042
2046
2021
1993
1963
1944
1934
1942
1956
1977
2000
2009
1999
1981
1959
1944
1936
1945
1961
1984
2007
2021
2010
1995
1972
1956
1947
1951
1966
1990
2011
2030
2020
1997
1977
1961
1954
1961
1972
1997
2019
2047
2064
2083
2101
2140
2192
2271
2366
2472
2581
2671
2727
2745
2698
2564
2363
2141
1917
1723
1549
1398
1279
1191
1147
1147
1179
1241
1345
1447
1573
1695
1780
1835
1856
1872
1887
1919
1965
2017
2067
2110
2126
2118
2095
2077
2066
2065
2071
2098
2123
2152
2157
2145
2126
2115
2104
2106
2115
2139
2164
2188
2196
2189
2167
2146
2131
2129
2134
2156
2176
2195
2206
2198
2178
2166
2154
2160
2165
2185
2209
2238
2243
2231
2209
2196
2186
2188
2200
2221
2249
2280
2291
2286
2264
2248
2235
2232
2240
2262
2289
2316
2332
2332
2318
2303
2292
2291
2299
2320
2347
2380
2393
2399
2381
2363
2344
2340
2346
2362
2387
2417
2431
2433
2409
2390
2374
2367
2364
2378
2399
2420
2428
2417
2393
2370
2345
2329
2323
2333
2340
2362
2373
2362
2331
2301
2272
2250
2235
2236
2243
2259
2263
2249
2215
2186
2151
2132
2112
2112
2114
2125
2130
2119
2089
2059
2027
2004
1986
1988
2001
2019
2028
2021
1996
1967
1938
1919
1911
1915
1932
1955
1976
1978
1958
1936
1914
1900
1898
1902
1915
1945
1964
1971
1959
1936
1906
1898
1891
1901
1919
1945
1965
1979
1964
1946
1931
1914
1909
1912
1930
1955
1979
1990
1983
1969
1943
1927
1922
1927
1943
1970
1993
2009
2005
1990
1965
1951
1943
1945
1956
1976
2001
2017
2009
1991
1969
1959
1951
1954
1966
1984
2006
2025
2017
1996
1969
1950
1938
1940
1951
1972
1996
2011
2003
1987
1965
1947
1938
1938
1946
1967
1988
2006
2003
1990
1965
1942
1930
1929
1937
1960
1982
2004
2002
1988
1961
1939
1922
1921
1929
1949
1977
1996
2000
1989
1966
1946
1935
1932
1940
1965
1987
2005
2015
2000
1979
1958
1947
1947
1954
1973
1998
2015
2017
2001
1978
1959
1944
1938
1940
1959
1978
2008
2013
2005
1987
1967
1954
1951
1953
1974
1999
2022
2039
2029
2011
1991
1973
1974
1973
1990
2008
2035
2048
2045
2031
2020
2009
2007
2016
2026
2050
2070
2084
2081
2059
2044
2029
2026
2026
2037
2055
2076
2084
2077
2055
2035
2017
2010
2002
2010
2008
2021
2026
2011
1983
1957
1935
1926
1928
1941
1963
1988
2005
2001
1980
1960
1941
1935
1938
1948
1967
1989
2006
2004
1985
1961
1941
1936
1938
1946
1965
1989
2008
2005
1987
1970
1953
1946
1944
1948
1972
2003
2044
2083
2116
2161
2213
2296
2384
2493
2602
2724
2818
2855
2788
2621
2372
2093
1831
1593
1398
1255
1160
1116
1104
1128
1174
1247
1348
1473
1610
1739
1828
1877
1892
1900
1903
1926
1955
1993
2031
2072
2098
2112
2101
2085
2068
2060
2060
2072
2087
2116
2143
2160
2155
2138
2122
2113
2108
2114
2130
2156
2176
2193
2182
2166
2149
2132
2128
2138
2155
2182
2208
2221
2214
2201
2177
2163
2160
2164
2176
2210
2233
2256
2256
2245
2224
2214
2204
2209
2223
2252
2272
2292
2293
2279
2261
2247
2239
2247
2256
2285
2302
2341
2344
2336
2316
2301
2292
2315
2310
2344
2375
2404
2414
2405
2386
2371
2365
2363
2372
2394
2419
2441
2445
2434
2415
2397
2384
2384
2384
2404
2415
2443
2446
2430
2405
2378
2357
2347
2342
2354
2370
2383
2379
2359
2321
2290
2264
2248
2239
2246
2256
2261
2254
2235
2200
2165
2132
2113
2102
2104
2113
2123
2116
2089
2055
2021
1997
1979
1966
1979
1986
1986
2003
1982
1956
1931
1909
1901
1901
1915
1934
1956
1960
1949
1925
1896
1885
1872
1875
1893
1914
1942
1953
1952
1932
1918
1899
1895
1897
1912
1935
1958
1969
1967
1947
1933
1913
1908
1910
1924
1945
1970
1984
1984
1964
1945
1925
1919
1918
1927
1943
1968
1985
1987
1969
1952
1928
1917
1917
1922
1945
1975
1991
1995
1976
1956
1931
1924
1923
1928
1948
1970
1987
1991
1974
1954
1932
1922
1921
1927
1939
1961
1979
1993
1977
1960
1931
1933
1926
1929
1949
1975
1994
1994
1975
1955
1931
1921
1920
1919
1937
1964
1988
1993
1976
1952
1931
1918
1914
1920
1938
1965
1989
2003
1991
1976
1954
1936
1933
1935
1950
1972
1996
2003
1989
1974
1951
1940
1934
1939
1954
1979
1998
2011
2001
1983
1960
1944
1938
1938
1954
1978
2004
2020
2012
1995
1968
1950
1937
1938
1948
1973
1992
2009
2008
1993
1972
1960
1952
1957
1968
1994
2019
2031
2026
2013
1993
1975
1978
1973
1978
2002
2025
2040
2031
2022
2005
1998
1996
2006
2019
2046
2072
2091
2091
2076
2052
2037
2026
2028
2034
2059
2082
2100
2101
2079
2053
2037
2023
2020
2019
2040
2056
2064
2055
2028
1995
1969
1946
1941
1936
1955
1989
1998
2001
1991
1972
1955
1941
1942
1949
1967
1986
2010
2011
1998
1976
1958
1938
1934
1934
1952
1972
1994
2004
1994
1971
1956
1939
1935
1933
1959
1981
2005
2013
2004
1995
2007
2042
2103
2176
2286
2404
2537
2655
2751
2820
2856
2826
2708
2499
2240
1966
1711
1485
1276
1107
1001
962
989
1057
1166
1302
1457
1609
1716
1772
1797
1812
1831
1865
1916
1974
2028
2066
2077
2066
2049
2039
2037
2037
2057
2082
2115
2136
2142
2129
2115
2103
2102
2103
2116
2140
2168
2191
2193
2174
2158
2137
2133
2135
2147
2167
2196
2218
2220
2208
2192
2176
2171
2170
2179
2194
2221
2239
2249
2239
2223
2203
2199
2198
2208
2231
2259
2286
2296
2284
2272
2251
2246
2243
2257
2279
2312
2335
2349
2340
2324
2308
2303
2299
2314
2336
2367
2393
2411
2403
2392
2372
2363
2361
2374
2389
2420
2444
2459
2448
2432
2396
2396
2390
2394
2413
2440
2460
2474
2460
2439
2413
2394
2379
2379
2380
2401
2420
2423
2412
2382
2355
2332
2313
2308
2306
2320
2327
2330
2307
2279
2242
2211
2186
2178
2179
2190
2192
2196
2173
2139
2100
2067
2040
2027
2025
2040
2044
2049
2035
2004
1975
1949
1934
1925
1926
1948
1964
1975
1970
1951
1919
1899
1885
1883
1888
1913
1934
1954
1958
1941
1919
1905
1893
1898
1901
1921
1940
1965
1964
1952
1930
1913
1901
1900
1903
1931
1943
1967
1973
1957
1936
1917
1905
1908
1912
1931
1953
1971
1979
1970
1949
1932
1914
1910
1915
1933
1955
1981
1986
1974
1960
1934
1923
1918
1922
1945
1965
1984
1991
1980
1958
1937
1919
1917
1921
1935
1958
1982
1985
1974
1954
1930
1912
1908
1911
1923
1947
1971
1984
1976
1958
1935
1912
1906
1910
1928
1946
1970
1982
1970
1945
1926
1903
1906
1911
1924
1947
1964
1973
1970
1952
1930
1917
1913
1913
1924
1947
1971
1988
1987
1967
1948
1930
1924
1922
1934
1953
1979
1996
1993
1971
1952
1933
1928
1928
1937
1950
1975
1988
1995
1983
1964
1949
1941
1934
1941
1956
1981
1997
2003
1986
1966
1948
1941
1934
1935
1960
1982
2003
2007
1993
1975
1955
1947
1942
1950
1969
1999
2019
2028
2013
1992
1971
1958
1954
1967
1983
2013
2036
2042
2028
2012
1983
1969
1963
1958
1996
2024
2058
2079
2073
2059
2040
2029
2027
2031
2046
2073
2091
2104
2094
2074
2042
2023
2014
2014
2026
2046
2068
2078
2068
2050
2022
1991
1969
1963
1967
1983
1995
2001
1985
1967
1948
1935
1928
1935
1951
1975
1999
2015
2002
1982
1959
1948
1942
1945
1959
1980
2000
2012
2009
1993
1972
1952
1940
1949
1960
1983
2005
2024
2015
2001
1971
1953
1938
1940
1968
2029
2099
2176
2252
2326
2396
2473
2565
2663
2750
2816
2813
2711
2499
2227
1939
1671
1439
1259
1139
1083
1091
1138
1197
1258
1334
1425
1533
1641
1730
1800
1861
1916
1953
1977
1993
2005
2021
2036
2052
2074
2096
2118
2130
2120
2099
2086
2077
2081
2088
2114
2141
2170
2183
2179
2158
2144
2133
2134
2142
2161
2184
2212
2220
2215
2197
2174
2163
2157
2168
2188
2214
2245
2254
2249
2227
2208
2191
2187
2190
2206
2231
2258
2277
2272
2260
2240
2223
2220
2223
2241
2270
2302
2320
2320
2305
2289
2270
2265
2264
2285
2309
2340
2361
2367
2355
2343
2330
2330
2330
2347
2373
2403
2417
2423
2403
2381
2368
2366
2366
2381
2406
2431
2446
2446
2425
2405
2387
2384
2375
2381
2392
2413
2428
2431
2410
2385
2357
2342
2329
2328
2334
2349
2361
2358
2334
2308
2275
2255
2236
2230
2236
2246
2240
2231
2204
2183
2154
2130
2112
2105
2109
2121
2122
2107
2081
2051
2016
1992
1982
1977
1985
2003
2011
2017
1997
1969
1942
1919
1907
1911
1917
1946
1964
1975
1960
1940
1917
1903
1897
1901
1911
1938
1964
1974
1963
1945
1919
1906
1898
1905
1922
1946
1965
1982
1975
1954
1927
1915
1905
1913
1925
1950
1974
1985
1977
1957
1936
1923
1917
1921
1930
1951
1976
1992
1988
1973
1953
1942
1934
1933
1939
1963
1981
1994
1989
1974
1954
1943
1931
1930
1934
1957
1980
1999
1996
1983
1957
1935
1918
1919
1919
1946
1966
1986
1988
1972
1949
1928
1912
1912
1915
1938
1962
1981
1983
1969
1942
1921
1909
1906
1907
1926
1946
1974
1985
1969
1952
1936
1924
1925
1926
1940
1963
1985
1983
1970
1952
1932
1919
1920
1930
1946
1963
1990
1995
1990
1964
1944
1929
1920
1920
1936
1960
1984
2000
1987
1964
1949
1928
1925
1925
1944
1968
1997
2011
2011
1991
1974
1958
1956
1959
1969
1988
2010
2019
2013
1993
1973
1952
1951
1962
1987
2013
2045
2069
2068
2054
2033
2015
2013
2022
2028
2051
2072
2081
2076
2056
2037
2007
1997
1991
2006
2027
2049
2062
2049
2019
1985
1960
1942
1932
1934
1944
1969
1983
1987
1973
1958
1937
1935
1935
1943
1958
1980
1999
2000
1980
1964
1946
1937
1937
1941
1957
1989
2003
2011
1995
1974
1959
1949
1948
1950
1968
1994
2009
2016
1997
1983
1977
1997
2031
2085
2159
2252
2345
2437
2508
2569
2619
2658
2662
2602
2468
2284
2073
1860
1640
1438
1276
1163
1113
1112
1156
1232
1318
1419
1508
1596
1673
1738
1789
1827
1874
1933
1992
2042
2068
2077
2066
2057
2055
2053
2059
2086
2105
2126
2126
2115
2097
2093
2085
2094
2104
2129
2153
2167
2163
2144
2125
2112
2110
2117
2128
2157
2178
2198
2199
2185
2161
2147
2141
2143
2159
2181
2206
2232
2234
2220
2197
2184
2176
2182
2192
2218
2243
2262
2270
2259
2238
2229
2214
2216
2228
2254
2283
2312
2313
2303
2289
2272
2267
2271
2279
2305
2334
2366
2375
2367
2347
2334
2325
2324
2333
2355
2380
2404
2413
2406
2389
2377
2361
2359
2366
2385
2408
2430
2438
2425
2401
2378
2351
2342
2350
2352
2373
2392
2393
2382
2351
2323
2295
2283
2277
2282
2293
2312
2312
2293
2260
2224
2187
2169
2158
2155
2169
2181
2187
2171
2141
2108
2074
2054
2034
2034
2044
2060
2065
2055
2023
1993
1963
1951
1940
1942
1957
1973
1981
1975
1949
1929
1908
1899
1895
1905
1922
1946
1962
1962
1943
1922
1906
1898
1901
1909
1929
1956
1972
1975
1960
1943
1927
1918
1915
1926
1943
1969
1984
1990
1971
1953
1932
1930
1925
1938
1959
1989
2010
2015
1996
1974
1951
1939
1938
1942
1956
1981
1998
2010
1996
1979
1958
1948
1943
1951
1962
1987
2002
2014
2001
1983
1962
1948
1946
1948
1954
1977
1993
2001
1987
1963
1947
1933
1927
1927
1947
1972
1988
2002
1993
1972
1944
1929
1922
1923
1935
1961
1985
2001
1992
1974
1946
1927
1924
1925
1934
1959
1977
1995
1985
1968
1950
1939
1929
1932
1940
1964
1986
2007
2001
1983
1955
1935
1929
1929
1941
1960
1990
2007
2002
1986
1966
1953
1946
1950
1962
1995
2016
2036
2031
2017
1994
1974
1963
1968
1972
1997
2021
2047
2054
2045
2028
2015
2006
2012
2021
2047
2069
2092
2092
2078
2058
2037
2022
2020
2019
2036
2055
2077
2078
2066
2041
2017
1995
1981
1973
1982
1991
2015
2000
1983
1958
1938
1930
1930
1940
1965
1991
2012
2013
1999
1969
1946
1932
1931
1938
1956
1979
1998
2009
1999
1976
1958
1944
1940
1943
1955
1977
2002
2012
2003
1982
1961
1950
1945
1947
1991
2039
2109
2175
2237
2294
2368
2440
2530
2610
2701
2764
2775
2683
2495
2234
1963
1708
1483
1300
1184
1132
1131
1169
1221
1268
1327
1403
1505
1609
1709
1796
1864
1913
1943
1955
1975
1996
2013
2031
2052
2077
2101
2119
2120
2104
2087
2072
2072
2074
2092
2113
2145
2167
2177
2159
2143
2121
2110
2112
2124
2145
2176
2198
2201
2190
2173
2157
2149
2142
2156
2175
2206
2224
2234
2222
2211
2188
2178
2176
2189
2207
2240
2265
2275
2265
2248
2227
2215
2207
2219
2240
2268
2291
2306
2296
2282
2264
2259
2263
2274
2293
2326
2351
2367
2358
2344
2329
2320
2325
2336
2357
2388
2410
2428
2415
2406
2388
2377
2376
2384
2401
2426
2449
2462
2452
2436
2413
2394
2384
2385
2388
2407
2424
2436
2426
2403
2372
2346
2327
2323
2326
2339
2352
2357
2339
2313
2276
2251
2230
2219
2215
2226
2236
2241
2223
2195
2159
2128
2108
2094
2086
2098
2106
2109
2096
2065
2034
2003
1986
1979
1981
1996
2013
2026
2020
1993
1961
1934
1918
1914
1921
1941
1959
1982
1984
1967
1942
1921
1909
1913
1924
1945
1967
1988
1990
1980
1958
1945
1932
1934
1940
1962
1981
2003
2008
2000
1977
1961
1949
1953
1963
1981
2006
2029
2028
2021
1998
1979
1970
1964
1972
1993
2016
2043
2050
2045
2026
2004
1991
1986
1988
2002
2024
2046
2058
2051
2028
1999
1993
1986
1986
2006
2030
2047
2059
2056
2034
2014
1995
1990
1989
2002
2021
2046
2054
2049
2031
2012
1992
1992
1989
2004
2025
2047
2059
2051
2025
2007
1985
1982
1985
1997
2026
2049
2068
2066
2047
2021
2003
1995
1995
2006
2027
2057
2071
2073
2049
2031
2010
2008
2008
2018
2043
2066
2087
2087
2071
2050
2031
2023
2021
2032
2044
2075
2092
2098
2081
2065
2043
2033
2027
2037
2053
2079
2100
2112
2091
2076
2061
2055
2058
2071
2090
2117
2135
2140
2122
2103
2082
2077
2075
2088
2109
2141
2168
2185
2175
2162
2146
2136
2130
2138
2153
2178
2201
2217
2201
2184
2162
2148
2140
2137
2154
2174
2195
2203
2192
2170
2141
2115
2096
2085
2092
2105
2118
2125
2110
2090
2068
2054
2048
2053
2067
2096
2119
2133
2125
2109
2085
2071
2064
2065
2077
2104
2125
2139
2132
2118
2095
2077
2066
2070
2076
2104
2128
2144
2142
2123
2095
2079
2070
2093
2142
2219
2305
2405
2490
2575
2655
2742
2826
2906
2947
2930
2813
2611
2334
2044
1762
1526
1336
1213
1161
1177
1244
1336
1425
1516
1615
1717
1804
1877
1922
1974
2027
2078
2119
2140
2152
2156
2161
2166
2177
2200
2226
2250
2258
2251
2229
2214
2204
2208
2218
2240
2264
2290
2300
2287
2269
2251
2244
2247
2250
2274
2296
2330
2338
2331
2315
2297
2280
2276
2276
2299
2319
2350
2363
2360
2343
2324
2307
2305
2307
2325
2350
2378
2395
2389
2374
2361
2347
2348
2351
2368
2392
2421
2435
2437
2422
2411
2398
2400
2401
2422
2450
2484
2502
2508
2490
2478
2463
2460
2465
2483
2506
2534
2555
2558
2543
2531
2500
2505
2506
2522
2543
2564
2581
2576
2559
2536
2512
2496
2490
2497
2510
2534
2548
2545
2519
2490
2466
2446
2435
2437
2444
2458
2465
2458
2430
2393
2360
2333
2316
2306
2312
2320
2325
2320
2288
2251
2211
2182
2162
2156
2157
2173
2177
2171
2137
2109
2079
2058
2041
2038
2045
2064
2077
2077
2057
2033
2002
1987
1979
1975
1988
2013
2027
2038
2027
2010
1989
1980
1978
1981
1996
2015
2036
2043
2029
2015
1996
1980
1975
1983
1993
2015
2034
2043
2033
2012
1990
1981
1976
1977
1991
2017
2041
2057
2047
2032
2014
1998
1984
1992
1996
2015
2036
2052
2046
2031
2003
1991
1977
1994
1991
2017
2030
2049
2042
2028
2002
1988
1975
1978
1988
2009
2027
2042
2036
2014
1992
1977
1967
1973
1978
1998
2012
2032
2026
2010
1990
1978
1968
1970
1976
1995
2010
2030
2023
2007
1976
1972
1963
1959
1967
1987
2004
2023
2030
2015
1998
1977
1965
1962
1967
1986
2006
2021
2024
2008
1983
1968
1954
1953
1957
1980
1999
2026
2027
2019
1992
1972
1957
1954
1959
1979
2002
2027
2031
2022
2001
1979
1965
1962
1965
1980
2004
2028
2034
2024
2004
1982
1967
1964
1966
1984
2008
2038
2047
2046
2026
2008
1991
1986
1986
2003
2023
2053
2060
2058
2044
2015
2021
2017
2022
2035
2064
2090
2105
2100
2085
2064
2044
2034
2034
2042
2061
2082
2094
2093
2071
2049
2030
2022
2017
2018
2028
2038
2037
2028
1995
1970
1943
1932
1923
1931
1952
1980
1997
2003
1986
1964
1944
1934
1929
1933
1954
1978
1999
2003
1981
1958
1937
1930
1924
1933
1950
1976
1994
1998
1978
1960
1938
1925
1927
1927
1945
1968
1992
2018
2039
2076
2112
2181
2259
2359
2480
2609
2729
2825
2864
2826
2686
2458
2182
1905
1656
1445
1276
1144
1058
1023
1039
1090
1166
1280
1421
1576
1708
1803
1839
1850
1857
1869
1901
1938
1983
2033
2074
2091
2085
2075
2060
2046
2041
2047
2066
2098
2123
2142
2141
2132
2114
2103
2096
2099
2112
2133
2161
2177
2173
2156
2137
2124
2122
2130
2143
2168
2191
2205
2198
2184
2165
2152
2143
2150
2165
2187
2214
2232
2237
2224
2207
2192
2188
2189
2202
2225
2252
2275
2277
2265
2248
2234
2230
2234
2242
2271
2293
2319
2325
2319
2304
2289
2288
2294
2300
2322
2350
2379
2386
2378
2360
2356
2340
2348
2357
2380
2394
2419
2425
2414
2394
2375
2369
2370
2370
2387
2403
2417
2418
2407
2381
2354
2334
2329
2327
2340
2349
2366
2360
2338
2306
2285
2263
2248
2238
2248
2253
2267
2260
2238
2203
2169
2141
2125
2112
2115
2124
2137
2128
2101
2064
2032
2004
1987
1973
1974
1971
1988
1986
1967
1945
1919
1895
1878
1875
1880
1897
1912
1921
1915
1893
1871
1855
1846
1844
1854
1872
1897
1908
1907
1889
1871
1855
1851
1849
1865
1889
1910
1924
1921
1905
1883
1867
1856
1863
1871
1893
1923
1937
1935
1917
1895
1874
1873
1875
1885
1905
1930
1947
1945
1930
1910
1897
1889
1888
1893
1910
1932
1947
1954
1935
1919
1897
1884
1879
1884
1900
1925
1941
1949
1932
1913
1885
1874
1869
1875
1892
1915
1933
1940
1920
1907
1881
1869
1865
1872
1884
1908
1925
1933
1919
1903
1882
1870
1865
1866
1874
1896
1916
1926
1915
1900
1879
1867
1865
1867
1880
1901
1927
1935
1928
1913
1890
1875
1871
1877
1890
1913
1929
1939
1929
1914
1892
1881
1875
1880
1887
1906
1925
1943
1937
1924
1901
1892
1885
1888
1894
1914
1934
1946
1939
1923
1899
1889
1882
1881
1899
1923
1947
1963
1957
1938
1914
1895
1883
1887
1903
1927
1951
1969
1971
1961
1943
1931
1919
1920
1924
1944
1965
1976
1968
1962
1951
1947
1940
1952
1962
1989
2019
2038
2043
2026
2004
1987
1979
1978
1986
2003
2020
2035
2038
2026
1998
1983
1965
1966
1970
1981
1996
2002
1993
1970
1935
1909
1883
1876
1873
1894
1916
1940
1953
1945
1925
1910
1894
1887
1886
1900
1916
1939
1946
1941
1921
1908
1893
1893
1893
1911
1933
1953
1958
1948
1927
1908
1895
1890
1908
1914
1931
1954
1962
1957
1950
1960
1983
2029
2089
2171
2272
2377
2474
2560
2611
2654
2660
2610
2474
2278
2060
1847
1641
1437
1261
1131
1053
1032
1058
1115
1204
1314
1431
1540
1627
1697
1738
1773
1806
1846
1898
1959
2011
2042
2038
2024
2002
1991
1987
1997
2017
2050
2073
2083
2069
2056
2038
2032
2033
2040
2055
2084
2105
2117
2105
2089
2073
2068
2066
2076
2093
2121
2141
2149
2133
2120
2104
2091
2092
2098
2120
2145
2168
2173
2165
2148
2132
2136
2136
2146
2167
2191
2211
2226
2214
2202
2184
2180
2172
2180
2201
2227
2248
2265
2255
2245
2228
2225
2229
2244
2260
2285
2305
2320
2312
2305
2292
2284
2283
2290
2303
2326
2345
2357
2354
2347
2328
2315
2310
2316
2324
2346
2365
2379
2373
2354
2330
2308
2295
2290
2292
2308
2324
2334
2324
2302
2271
2246
2227
2220
2214
2225
2232
2239
2224
2203
2177
2152
2123
2108
2101
2109
2113
2118
2102
2078
2044
2012
1995
1984
1976
1990
1997
2008
1996
1968
1933
1897
1878
1869
1868
1883
1904
1922
1919
1909
1888
1858
1841
1839
1846
1865
1885
1907
1905
1892
1873
1854
1844
1845
1853
1873
1889
1905
1913
1905
1885
1868
1859
1865
1868
1884
1911
1922
1929
1922
1899
1880
1867
1860
1860
1883
1911
1946
1965
1957
1924
1897
1875
1873
1878
1892
1920
1948
1959
1959
1904
1923
1906
1907
1911
1923
1938
1958
1957
1945
1920
1903
1894
1892
1891
1906
1918
1943
1961
1954
1930
1911
1897
1888
1890
1900
1917
1936
1945
1948
1928
1908
1891
1878
1877
1890
1911
1940
1960
1963
1951
1923
1899
1886
1876
1878
1894
1923
1946
1953
1940
1929
1910
1899
1897
1908
1922
1945
1962
1962
1937
1912
1891
1884
1885
1894
1911
1937
1953
1959
1943
1924
1905
1894
1893
1908
1928
1954
1975
1978
1962
1946
1927
1921
1925
1937
1950
1973
1990
1997
1990
1975
1966
1963
1969
1974
1991
2014
2036
2043
2027
2014
2001
1993
1988
1987
1990
2007
2029
2044
2033
2020
1995
1982
1968
1966
1971
1981
1985
1987
1970
1944
1918
1900
1888
1896
1911
1939
1961
1979
1975
1961
1941
1920
1911
1913
1926
1947
1968
1987
1979
1966
1940
1919
1910
1919
1929
1950
1968
1980
1973
1964
1945
1926
1920
1920
1926
1949
1994
2009
2038
2065
2087
2126
2184
2255
2330
2425
2509
2585
2625
2622
2548
2407
2217
2006
1801
1623
1476
1362
1269
1207
1178
1182
1217
1273
1343
1444
1556
1667
1758
1812
1840
1867
1894
1926
1963
2007
2055
2091
2103
2093
2076
2051
2038
2047
2044
2066
2096
2120
2129
2117
2098
2082
2075
2078
2087
2109
2132
2158
2167
2152
2137
2120
2109
2108
2111
2131
2150
2175
2188
2187
2170
2154
2137
2141
2153
2173
2198
2219
2230
2220
2201
2188
2172
2171
2175
2194
2217
2248
2259
2255
2240
2225
2212
2209
2212
2233
2257
2276
2293
2290
2277
2266
2256
2255
2262
2280
2303
2332
2353
2353
2338
2327
2308
2310
2316
2331
2353
2385
2401
2404
2386
2367
2342
2332
2327
2334
2354
2378
2392
2389
2366
2343
2317
2303
2296
2299
2311
2339
2334
2328
2300
2269
2240
2220
2208
2206
2216
2229
2239
2237
2211
2178
2141
2115
2102
2100
2113
2124
2136
2133
2104
2067
2033
2012
1997
2000
2005
2019
2036
2035
2012
1986
1962
1945
1930
1933
1945
1969
1986
1976
1980
1951
1933
1919
1910
1917
1931
1954
1978
1989
1980
1959
1944
1934
1931
1934
1943
1970
1993
2002
1987
1971
1950
1933
1924
1932
1951
1975
2001
2017
2011
1994
1966
1950
1946
1952
1964
1989
2025
2025
2014
1998
1977
1968
1962
1968
1971
1997
2018
2030
2025
2007
1990
1980
1968
1970
1975
1996
2022
2037
2035
2015
1991
1971
1956
1958
1967
1988
2005
2023
2021
2005
1981
1963
1952
1953
1958
1980
2002
2023
2023
2005
1981
1965
1950
1956
1959
1976
1993
2016
2019
2005
1983
1963
1949
1949
1953
1974
2000
2015
2019
2009
1985
1962
1953
1956
1958
1975
1994
2019
2026
2017
1995
1974
1960
1958
1963
1984
2005
2039
2050
2044
2022
1995
1975
1971
1974
1990
2012
2036
2045
2041
2029
2016
2012
2012
2017
2034
2053
2077
2087
2081
2062
2047
2037
2035
2035
2046
2061
2083
2091
2084
2059
2039
2024
2015
2011
2013
2024
2038
2043
2034
2000
1970
1949
1942
1940
1957
1974
2001
2020
2019
1998
1974
1956
1949
1950
1963
1981
2008
2024
2023
2007
1983
1964
1957
1953
1962
1978
2002
2014
2017
1999
1986
1967
1959
1960
1968
1987
2007
2036
2065
2088
2113
2150
2211
2297
2382
2495
2609
2709
2785
2797
2740
2587
2367
2120
1882
1668
1486
1345
1240
1169
1144
1152
1196
1254
1341
1457
1594
1714
1806
1845
1866
1875
1893
1924
1966
2013
2060
2093
2117
2107
2092
2073
2061
2057
2062
2083
2112
2136
2154
2147
2135
2117
2103
2100
2106
2118
2147
2167
2181
2174
2161
2140
2133
2125
2130
2146
2173
2196
2217
2207
2193
2173
2156
2148
2156
2169
2194
2218
2235
2232
2212
2193
2184
2185
2191
2202
2229
2258
2277
2278
2265
2243
2230
2224
2230
2245
2274
2300
2324
2328
2320
2301
2290
2283
2291
2306
2332
2362
2384
2390
2379
2364
2349
2348
2350
2361
2386
2408
2428
2429
2415
2393
2382
2369
2368
2372
2394
2411
2429
2427
2408
2385
2359
2342
2336
2332
2346
2363
2379
2375
2356
2324
2292
2268
2252
2246
2252
2260
2269
2261
2242
2200
2167
2136
2120
2108
2112
2119
2131
2124
2103
2068
2041
2007
1991
1982
1990
2002
2015
2019
2005
1978
1950
1928
1920
1910
1928
1946
1967
1971
1961
1935
1913
1891
1886
1887
1903
1924
1947
1957
1951
1932
1915
1897
1891
1890
1903
1925
1951
1974
1966
1943
1927
1908
1907
1906
1920
1944
1965
1981
1986
1968
1952
1933
1920
1919
1934
1952
1982
1993
1998
1980
1961
1937
1929
1925
1941
1960
1986
2002
2012
1995
1974
1951
1939
1935
1936
1955
1979
2000
2007
1993
1972
1950
1935
1930
1936
1955
1977
1993
2001
1981
1961
1935
1926
1925
1933
1949
1971
1986
1998
1978
1963
1940
1928
1926
1936
1948
1974
1993
2001
1983
1967
1949
1937
1933
1935
1952
1972
1992
2007
1995
1974
1953
1943
1936
1945
1955
1984
2006
2020
1999
1992
1971
1952
1944
1947
1956
1980
2001
2014
2004
1990
1967
1952
1941
1945
1959
1983
2008
2022
2015
1994
1974
1959
1945
1947
1958
1980
2004
2025
2021
2006
1981
1958
1948
1950
1963
1983
2004
2025
2028
2013
1994
1981
1977
1980
1989
2015
2037
2053
2035
2030
2006
1989
1980
1983
2000
2029
2058
2083
2091
2076
2056
2036
2025
2027
2031
2055
2076
2102
2104
2089
2059
2040
2025
2027
2029
2050
2072
2088
2095
2076
2035
2012
1988
1974
1972
1984
1999
2013
2010
1992
1974
1959
1945
1947
1953
1966
1990
2010
2015
2005
1983
1969
1955
1949
1952
1963
1983
2003
2015
2005
1986
1960
1945
1942
1944
1963
1990
2014
2028
2018
1994
1972
1956
1961
1986
2044
2122
2216
2311
2404
2484
2565
2649
2736
2798
2819
2746
2587
2345
2057
1767
1509
1286
1124
1028
1012
1057
1147
1248
1352
1454
1560
1658
1732
1781
1824
1871
1926
1977
2011
2023
2061
2024
2028
2035
2049
2072
2095
2120
2125
2106
2091
2078
2070
2070
2088
2114
2142
2165
2173
2158
2146
2129
2120
2122
2132
2151
2176
2197
2206
2184
2171
2155
2146
2146
2159
2176
2205
2226
2234
2218
2206
2185
2182
2181
2187
2207
2243
2263
2278
2267
2251
2231
2227
2224
2235
2253
2281
2305
2321
2304
2307
2288
2280
2280
2290
2304
2333
2354
2373
2367
2359
2340
2333
2330
2341
2360
2392
2417
2438
2429
2417
2400
2385
2381
2382
2399
2424
2444
2462
2452
2430
2406
2395
2382
2380
2393
2410
2422
2434
2419
2399
2372
2350
2335
2330
2329
2343
2355
2361
2347
2322
2288
2263
2239
2228
2221
2227
2243
2240
2217
2189
2152
2124
2097
2100
2082
2092
2100
2100
2087
2057
2025
1995
1975
1962
1961
1971
1983
1996
1992
1973
1942
1924
1910
1903
1910
1928
1949
1965
1965
1951
1925
1909
1900
1902
1902
1928
1947
1970
1975
1956
1936
1918
1905
1907
1911
1931
1955
1980
1986
1975
1954
1937
1923
1922
1927
1948
1973
1993
1998
1988
1962
1945
1927
1928
1932
1952
1978
2002
2008
1997
1974
1958
1938
1935
1938
1952
1972
1998
2008
2001
1979
1963
1940
1938
1939
1956
1979
2003
2016
2002
1987
1964
1946
1941
1940
1953
1976
1998
2007
2003
1983
1959
1941
1934
1930
1946
1961
1996
2006
2004
1979
1958
1939
1930
1931
1940
1961
1980
1994
1990
1969
1953
1931
1925
1923
1933
1954
1979
1996
1999
1981
1961
1938
1927
1929
1942
1955
1977
1995
1996
1980
1957
1935
1927
1927
1934
1949
1972
1990
1993
1977
1957
1937
1932
1932
1945
1962
1987
2004
2008
1995
1977
1961
1949
1945
1954
1967
1994
2012
2015
2004
1983
1963
1954
1948
1956
1967
1990
2009
2019
2008
1992
1970
1965
1962
1970
1980
2008
2026
2032
2025
2006
1991
1981
1980
1985
1997
2024
2044
2061
2047
2030
2004
1997
1986
1992
2004
2033
2062
2087
2090
2083
2067
2054
2044
2047
2062
2088
2109
2126
2118
2103
2081
2067
2052
2047
2054
2073
2095
2113
2105
2086
2065
2051
2030
2022
2014
2028
2039
2047
2037
2011
1982
1965
1952
1951
1963
1989
2010
2031
2037
2023
2002
1985
1970
1970
1977
1999
2024
2037
2038
2021
2000
1979
1969
1963
1974
1993
2010
2029
2034
2020
1996
1982
1973
1970
1975
2004
2050
2116
2174
2229
2289
2361
2449
2551
2659
2772
2854
2892
2815
2626
2351
2053
1770
1535
1338
1197
1121
1104
1124
1168
1229
1310
1412
1535
1659
1762
1838
1899
1936
1959
1967
1984
2001
2024
2046
2077
2104
2132
2141
2135
2119
2103
2093
2092
2095
2110
2135
2160
2172
2187
2160
2148
2132
2129
2134
2145
2166
2189
2207
2209
2195
2177
2156
2151
2156
2167
2191
2216
2235
2233
2217
2199
2181
2179
2179
2194
2215
2244
2263
2269
2253
2232
2215
2211
2213
2221
2253
2281
2298
2302
2291
2272
2255
2251
2249
2268
2288
2321
2343
2358
2345
2336
2322
2317
2315
2332
2356
2385
2409
2422
2413
2398
2381
2372
2368
2375
2392
2423
2446
2456
2444
2422
2397
2385
2378
2385
2400
2420
2440
2445
2425
2399
2366
2352
2337
2341
2347
2362
2376
2373
2354
2329
2294
2271
2252
2243
2243
2254
2261
2256
2232
2197
2158
2126
2110
2101
2102
2110
2113
2115
2091
2060
2024
1997
1978
1971
1970
1988
2000
2008
1989
1971
1939
1920
1905
1905
1918
1936
1953
1966
1956
1932
1905
1887
1880
1889
1894
1916
1937
1955
1953
1936
1914
1896
1890
1894
1906
1927
1946
1964
1963
1949
1931
1912
1900
1899
1908
1929
1952
1974
1969
1953
1926
1915
1903
1907
1932
1934
1961
1980
1983
1965
1946
1925
1920
1912
1914
1932
1957
1979
1979
1969
1948
1932
1921
1921
1924
1943
1961
1983
1994
1977
1958
1939
1919
1924
1926
1942
1961
1980
1986
1972
1954
1937
1927
1922
1916
1934
1954
1977
1988
1977
1957
1935
1923
1919
1922
1935
1958
1979
1982
1975
1949
1930
1909
1907
1901
1917
1935
1958
1977
1975
1960
1939
1923
1916
1922
1935
1954
1980
1986
1983
1960
1937
1919
1916
1912
1923
1946
1973
1990
1987
1968
1952
1929
1927
1922
1936
1955
1981
1999
1996
1984
1961
1942
1927
1924
1932
1951
1982
2001
2003
1989
1967
1946
1944
1936
1948
1970
1993
2009
2005
1993
1978
1958
1952
1949
1953
1970
1998
2017
2023
2005
1991
1978
1973
1975
1992
2020
2044
2059
2069
2056
2039
2023
2018
2022
2028
2041
2062
2073
2079
2056
2033
2012
1996
1993
1998
2013
2029
2039
2033
2011
1987
1955
1934
1921
1923
1938
1969
1994
2007
1992
1971
1949
1935
1929
1938
1949
1967
1987
2004
1993
1982
1960
1946
1938
1947
1958
1976
1989
1994
1982
1967
1947
1934
1931
1940
1945
1976
1995
2009
1994
1988
1983
2010
2043
2108
2188
2291
2392
2491
2562
2621
2658
2672
2626
2503
2321
2122
1923
1724
1533
1366
1231
1149
1120
1139
1193
1273
1379
1492
1594
1677
1738
1788
1827
1861
1897
1947
1994
2046
2068
2074
2066
2055
2045
2042
2047
2071
2100
2126
2135
2128
2110
2092
2082
2085
2089
2110
2131
2150
2153
2151
2136
2125
2114
2112
2123
2142
2159
2179
2188
2177
2159
2143
2133
2133
2137
2159
2186
2215
2232
2224
2205
2180
2169
2170
2170
2195
2213
2244
2254
2256
2238
2223
2215
2221
2231
2249
2278
2304
2315
2309
2287
2274
2262
2263
2266
2287
2313
2339
2353
2349
2336
2325
2311
2314
2319
2336
2359
2387
2399
2399
2387
2366
2357
2357
2356
2368
2384
2406
2417
2414
2391
2365
2342
2336
2323
2330
2343
2366
2378
2374
2350
2332
2303
2285
2272
2272
2283
2298
2307
2297
2267
2230
2199
2175
2157
2155
2160
2176
2171
2159
2127
2098
2067
2043
2031
2035
2043
2061
2066
2056
2030
2004
1969
1954
1949
1946
1954
1972
1980
1979
1963
1942
1925
1915
1912
1916
1929
1954
1971
1972
1951
1935
1913
1902
1899
1904
1919
1952
1971
1981
1969
1948
1928
1913
1908
1912
1930
1949
1972
1988
1983
1961
1943
1934
1930
1934
1949
1977
1995
2006
1993
1976
1953
1934
1929
1933
1949
1979
2000
2015
2005
1990
1969
1954
1941
1945
1953
1980
1998
2010
2008
1989
1965
1948
1935
1937
1951
1968
1991
2003
2000
1983
1963
1948
1934
1941
1952
1968
1983
1999
1989
1978
1953
1940
1926
1929
1936
1957
1979
1997
1993
1979
1963
1947
1934
1936
1939
1961
1980
2004
2004
1988
1965
1946
1931
1937
1939
1962
1980
2000
2001
1983
1961
1945
1927
1934
1946
1966
1992
2009
2011
1996
1973
1953
1942
1940
1939
1957
1979
2001
2012
1999
1985
1968
1958
1957
1962
1977
1996
2014
2021
2011
1989
1969
1960
1964
1975
2003
2034
2065
2076
2066
2046
2026
2017
2011
2020
2038
2057
2075
2084
2069
2047
2029
2011
2010
2010
2022
2039
2062
2065
2051
2023
1990
1961
1946
1941
1942
1957
1976
1986
1979
1956
1939
1919
1924
1926
1940
1957
1976
1995
1991
1967
1945
1926
1929
1930
1946
1971
1992
2007
2000
1983
1968
1943
1938
1936
1948
1969
1991
2002
2002
1983
1968
1965
1988
2028
2092
2165
2263
2357
2447
2516
2582
2643
2694
2707
2655
2522
2329
2100
1865
1630
1414
1242
1133
1077
1092
1145
1236
1331
1428
1519
1614
1684
1747
1791
1831
1880
1934
1992
2034
2052
2056
2047
2042
2039
2049
2070
2097
2121
2130
2121
2110
2091
2081
2076
2085
2102
2137
2155
2168
2159
2140
2118
2110
2108
2116
2132
2165
2183
2194
2185
2171
2152
2151
2141
2150
2166
2189
2213
2225
2219
2204
2184
2171
2170
2175
2191
2218
2245
2264
2256
2243
2225
2208
2208
2215
2229
2265
2284
2305
2303
2286
2272
2263
2259
2261
2280
2304
2331
2354
2356
2344
2330
2313
2313
2323
2336
2368
2393
2420
2417
2403
2378
2360
2350
2346
2360
2385
2407
2428
2431
2414
2384
2364
2349
2346
2344
2341
2379
2397
2390
2369
2338
2315
2295
2282
2281
2287
2301
2308
2301
2277
2243
2213
2186
2174
2161
2168
2174
2183
2166
2150
2114
2086
2059
2043
2033
2033
2044
2052
2044
2027
1992
1968
1939
1930
1930
1938
1953
1973
1973
1955
1928
1908
1892
1886
1887
1903
1926
1948
1954
1946
1926
1908
1892
1891
1895
1908
1929
1952
1966
1958
1938
1920
1910
1899
1902
1916
1942
1968
1980
1973
1957
1938
1920
1917
1914
1932
1958
1978
2003
2000
1981
1957
1936
1931
1931
1939
1956
1983
1995
1993
1977
1957
1934
1933
1926
1938
1958
1982
1994
1999
1974
1957
1942
1929
1928
1938
1957
1980
1992
1997
1979
1963
1941
1932
1929
1938
1954
1980
1995
1997
1976
1958
1944
1928
1923
1929
1949
1968
1987
1993
1971
1956
1937
1928
1923
1929
1945
1968
1990
1997
1977
1963
1936
1929
1922
1931
1949
1974
1998
2006
1988
1970
1948
1935
1930
1939
1951
1977
1997
2007
1994
1972
1956
1948
1941
1950
1961
1987
2003
2009
1996
1979
1959
1946
1944
1946
1961
1981
2000
2013
2003
1991
1964
1954
1948
1950
1967
1996
2016
2036
2023
2004
1983
1965
1961
1958
1973
2000
2034
2059
2056
2049
2033
2021
2014
2023
2031
2054
2075
2092
2092
2070
2057
2041
2030
2026
2033
2050
2071
2081
2077
2060
2037
2016
1999
1995
2000
2001
2018
2025
2009
1986
1958
1935
1923
1925
1935
1955
1979
1998
2002
1991
1970
1949
1936
1937
1939
1958
1980
1999
1999
1987
1963
1947
1931
1933
1937
1960
1984
2011
2017
1999
1977
1953
1939
1931
1936
1967
2015
2083
2145
2200
2260
2331
2412
2511
2619
2731
2827
2874
2813
2633
2363
2058
1766
1518
1304
1152
1071
1050
1082
1124
1186
1272
1374
1497
1618
1721
1799
1863
1900
1929
1947
1965
1978
1998
2017
2045
2074
2102
2114
2120
2099
2080
2069
2063
2074
2092
2122
2147
2164
2160
2146
2126
2112
2105
2112
2128
2151
2179
2195
2192
2178
2161
2143
2139
2140
2159
2182
2205
2226
2226
2210
2188
2175
2174
2176
2190
2209
2237
2258
2264
2252
2238
2218
2217
2218
2227
2248
2281
2307
2318
2308
2294
2282
2276
2277
2286
2307
2336
2364
2376
2371
2354
2337
2335
2331
2349
2369
2404
2427
2444
2434
2423
2402
2389
2386
2396
2412
2439
2462
2473
2461
2443
2422
2408
2407
2410
2425
2447
2462
2466
2449
2428
2397
2378
2368
2363
2366
2383
2392
2396
2376
2353
2318
2296
2277
2259
2260
2269
2275
2276
2251
2218
2184
2153
2132
2120
2112
2121
2124
2125
2104
2067
2037
2007
1991
1983
1983
1997
2011
2019
2003
1984
1953
1935
1919
1919
1924
1943
1963
1972
1960
1943
1914
1898
1888
1888
1903
1929
1955
1975
1972
1953
1930
1913
1903
1904
1916
1935
1958
1973
1974
1957
1936
1912
1900
1901
1905
1928
1954
1979
1983
1969
1948
1925
1911
1911
1914
1937
1956
1978
1980
1966
1947
1929
1922
1917
1928
1950
1970
1987
1992
1976
1952
1932
1920
1916
1918
1935
1955
1974
1983
1970
1947
1929
1920
1920
1926
1943
1960
1982
1995
1983
1960
1940
1926
1922
1921
1935
1957
1980
1989
1978
1956
1934
1916
1908
1914
1927
1951
1977
1990
1983
1961
1938
1920
1917
1915
1933
1951
1973
1985
1982
1953
1940
1922
1918
1919
1928
1947
1975
1981
1986
1971
1956
1940
1931
1924
1937
1952
1975
1987
1986
1969
1949
1929
1926
1927
1942
1965
1990
2004
1998
1975
1959
1939
1934
1939
1954
1979
2007
2018
2022
2001
1983
1962
1957
1953
1957
1985
2016
2048
2061
2049
2033
2008
2008
2006
2019
2036
2060
2080
2089
2077
2062
2036
2017
2015
2020
2033
2052
2067
2071
2048
2025
2004
1984
1967
1961
1965
1982
1991
1996
1971
1951
1932
1922
1918
1924
1943
1965
1987
1995
1983
1963
1941
1930
1919
1922
1937
1964
1984
1991
1981
1959
1944
1932
1927
1934
1947
1971
1988
2001
1992
1977
1954
1943
1934
1939
1969
2029
2097
2171
2233
2304
2376
2459
2559
2668
2767
2850
2871
2788
2573
2288
1969
1671
1415
1216
1072
1004
1002
1049
1112
1185
1271
1385
1507
1630
1721
1797
1854
1895
1925
1946
1966
1984
1998
2018
2037
2073
2097
2118
2119
2104
2084
2066
2056
2065
2081
2108
2137
2158
2163
2151
2132
2117
2105
2108
2115
2138
2161
2191
2196
2185
2168
2153
2144
2148
2150
2172
2199
2225
2227
2217
2205
2183
2175
2180
2189
2214
2237
2262
2272
2260
2244
2224
2216
2221
2229
2254
2277
2302
2316
2312
2294
2276
2278
2273
2278
2302
2331
2366
2380
2380
2352
2345
2333
2335
2343
2367
2394
2422
2437
2431
2417
2402
2392
2400
2402
2419
2436
2462
2477
2467
2446
2428
2409
2409
2408
2417
2432
2452
2459
2449
2420
2395
2367
2359
2354
2362
2373
2387
2392
2376
2345
2312
2281
2263
2248
2244
2248
2251
2249
2233
2200
2168
2136
2114
2093
2088
2094
2110
2111
2098
2066
2033
2003
1983
1969
1967
1976
1988
1997
1991
1965
1941
1913
1903
1890
1897
1910
1932
1952
1954
1937
1919
1897
1891
1888
1897
1908
1934
1952
1962
1944
1929
1911
1903
1896
1903
1918
1943
1958
1967
1950
1950
1912
1904
1903
1908
1926
1947
1971
1980
1970
1950
1930
1921
1912
1919
1934
1960
1981
1990
1977
1961
1941
1929
1928
1929
1942
1965
1988
2000
1990
1973
1953
1939
1930
1937
1952
1972
1990
2001
1990
1973
1947
1927
1926
1924
1934
1960
1985
1997
1987
1969
1941
1925
1920
1922
1928
1951
1976
1993
1985
1972
1948
1927
1918
1917
1921
1941
1964
1985
1984
1968
1951
1934
1920
1925
1932
1950
1972
1992
1991
1976
1950
1936
1924
1924
1926
1951
1975
1995
1994
1980
1957
1941
1929
1934
1939
1962
1980
2001
1998
1983
1963
1945
1931
1933
1934
1954
1976
2001
2010
2001
1988
1972
1963
1966
1976
1994
2011
2031
2036
2025
1999
1988
1981
1993
2000
2023
2048
2072
2100
2071
2052
2031
2016
2013
2019
2041
2063
2086
2088
2076
2051
2035
2017
2015
2017
2027
2047
2060
2052
2034
2002
1973
1948
1936
1929
1940
1955
1978
1988
1986
1969
1951
1932
1931
1928
1942
1960
1978
1995
1989
1965
1945
1927
1924
1926
1939
1955
1979
1988
1987
1966
1949
1932
1925
1928
1945
1964
1984
1996
1998
1989
1996
2017
2064
2138
2229
2347
2474
2595
2699
2776
2824
2825
2741
2560
2313
2043
1793
1552
1332
1150
1024
949
948
1001
1094
1218
1367
1515
1649
1733
1780
1797
1819
1847
1895
1949
2010
2060
2083
2087
2079
2057
2049
2048
2056
2075
2102
2131
2142
2133
2121
2103
2096
2097
2103
2119
2146
2170
2185
2176
2159
2139
2126
2127
2132
2153
2178
2199
2215
2210
2196
2182
2172
2166
2173
2188
2216
2240
2257
2251
2233
2218
2203
2206
2214
2225
2258
2285
2303
2297
2281
2260
2250
2245
2254
2272
2305
2330
2352
2351
2341
2324
2313
2308
2316
2336
2369
2398
2420
2421
2406
2387
2374
2383
2374
2379
2416
2446
2464
2468
2457
2438
2420
2408
2409
2416
2436
2458
2473
2468
2449
2420
2401
2384
2382
2388
2402
2421
2437
2430
2405
2376
2348
2323
2312
2309
2314
2319
2334
2325
2301
2263
2230
2194
2175
2167
2172
2181
2191
2179
2157
2119
2081
2052
2041
2031
2036
2043
2050
2041
2020
1990
1961
1937
1927
1917
1928
1944
1966
1963
1945
1928
1911
1892
1892
1891
1908
1923
1947
1952
1943
1917
1908
1894
1895
1899
1916
1937
1961
1965
1959
1941
1919
1906
1903
1908
1931
1942
1967
1986
1977
1955
1943
1927
1925
1924
1936
1953
1977
1990
1990
1974
1955
1941
1935
1935
1950
1968
1991
2003
1998
1974
1951
1930
1926
1927
1936
1957
1980
1993
1989
1972
1949
1926
1918
1919
1927
1951
1973
1991
1988
1970
1950
1928
1919
1917
1924
1940
1964
1979
1976
1957
1934
1912
1905
1899
1907
1922
1953
1973
1977
1959
1938
1919
1913
1910
1924
1937
1960
1975
1979
1967
1951
1934
1927
1928
1936
1951
1981
1998
2003
1990
1971
1948
1936
1932
1941
1964
1998
2031
2042
2036
2019
1999
1989
1989
2000
2017
2044
2061
2077
2062
2038
2014
1997
1987
1988
1997
2016
2034
2044
2021
1989
1951
1926
1907
1898
1901
1919
1940
1956
1947
1931
1915
1900
1896
1898
1909
1926
1950
1967
1961
1946
1929
1913
1903
1901
1913
1937
1962
1974
1970
1956
1934
1921
1911
1915
1922
1945
1963
1984
1979
1963
1942
1936
1929
1987
2049
2139
2242
2353
2455
2547
2624
2696
2757
2783
2731
2591
2368
2107
1827
1543
1289
1089
958
901
910
981
1076
1199
1319
1433
1545
1637
1703
1754
1799
1855
1916
1983
2030
2045
2046
2042
2032
2036
2042
2058
2082
2108
2120
2114
2100
2084
2077
2077
2084
2103
2134
2158
2170
2162
2141
2128
2117
2118
2124
2138
2168
2191
2202
2204
2185
2170
2156
2153
2154
2172
2201
2228
2238
2234
2221
2204
2191
2186
2187
2206
2226
2260
2278
2277
2257
2244
2234
2234
2239
2261
2282
2316
2332
2333
2319
2307
2295
2294
2299
2317
2341
2372
2392
2398
2384
2372
2359
2366
2373
2387
2411
2442
2461
2467
2445
2431
2414
2407
2404
2416
2438
2463
2481
2483
2462
2442
2418
2402
2395
2399
2413
2428
2437
2437
2412
2386
2355
2334
2318
2317
2318
2332
2338
2332
2305
2272
2235
2207
2188
2180
2182
2192
2197
2191
2152
2122
2087
2064
2047
2038
2039
2050
2054
2049
2023
1991
1958
1938
1921
1921
1921
1944
1960
1967
1952
1931
1907
1891
1885
1885
1898
1919
1935
1950
1943
1922
1892
1888
1884
1886
1896
1927
1948
1964
1943
1933
1910
1896
1894
1899
1905
1924
1941
1963
1957
1941
1926
1919
1915
1919
1924
1949
1966
1981
1979
1964
1943
1927
1915
1919
1927
1950
1974
1991
1988
1972
1947
1931
1920
1923
1934
1954
1974
1989
1987
1972
1953
1936
1922
1919
1927
1950
1971
1990
1989
1977
1955
1936
1919
1920
1925
1941
1961
1977
1980
1964
1945
1934
1927
1921
1930
1953
1977
2000
2006
1990
1971
1947
1935
1932
1935
1954
1981
2006
2015
2011
1992
1981
1975
1979
1992
2009
2031
2061
2076
2064
2044
2029
2010
2015
2006
2018
2033
2061
2063
2045
2026
2002
1979
1963
1946
1953
1958
1976
1975
1958
1933
1911
1897
1894
1898
1914
1937
1958
1967
1962
1937
1916
1897
1891
1888
1905
1928
1948
1959
1956
1937
1924
1912
1911
1909
1923
1946
1974
1985
1982
1961
1944
1925
1912
1913
1927
1955
2007
2056
2099
2141
2194
2262
2348
2448
2558
2663
2762
2820
2796
2657
2429
2150
1877
1619
1399
1228
1121
1069
1054
1070
1105
1160
1239
1346
1473
1604
1722
1812
1860
1883
1901
1911
1944
1975
2012
2045
2078
2096
2098
2080
2061
2044
2047
2047
2056
2079
2108
2127
2137
2126
2112
2098
2094
2098
2107
2120
2148
2166
2178
2167
2156
2139
2136
2132
2138
2152
2177
2200
2214
2204
2192
2170
2165
2164
2173
2189
2215
2232
2246
2239
2219
2206
2198
2198
2210
2227
2254
2278
2294
2292
2282
2262
2252
2251
2260
2283
2316
2340
2363
2356
2347
2331
2320
2320
2327
2344
2375
2402
2418
2417
2406
2386
2373
2369
2377
2393
2410
2436
2453
2450
2432
2409
2391
2379
2375
2377
2400
2421
2437
2429
2412
2388
2363
2349
2342
2339
2354
2363
2366
2347
2317
2282
2258
2239
2225
2223
2229
2235
2240
2219
2191
2155
2127
2105
2086
2075
2082
2088
2089
2069
2044
2011
1983
1961
1949
1947
1960
1975
1988
1982
1957
1927
1910
1887
1886
1887
1905
1929
1950
1951
1941
1925
1906
1890
1885
1888
1902
1923
1939
1953
1948
1927
1908
1888
1885
1891
1915
1937
1965
1973
1967
1941
1928
1917
1915
1919
1935
1955
1986
1998
1989
1967
1946
1928
1919
1925
1940
1961
1983
1996
1982
1957
1939
1919
1915
1919
1936
1958
1988
2001
1993
1972
1949
1929
1932
1925
1935
1950
1971
1983
1978
1954
1940
1924
1915
1917
1930
1948
1970
1982
1981
1962
1941
1923
1921
1919
1928
1947
1972
1987
1988
1972
1956
1947
1937
1941
1949
1964
1986
2002
2003
1982
1969
1952
1951
1951
1963
1987
2017
2034
2044
2032
2007
1999
1986
1983
1996
2013
2034
2053
2057
2034
2020
1993
1983
1983
1992
2002
2017
2022
2011
1987
1955
1924
1911
1900
1904
1919
1943
1961
1969
1956
1934
1911
1908
1902
1911
1924
1946
1964
1968
1956
1934
1915
1903
1901
1903
1922
1946
1970
1981
1969
1950
1931
1919
1910
1933
1935
1958
1978
1986
1970
1954
1948
1961
2002
2056
2123
2213
2312
2404
2478
2539
2590
2636
2648
2619
2510
2341
2138
1918
1691
1460
1274
1144
1078
1065
1105
1176
1274
1365
1455
1536
1618
1687
1747
1794
1840
1891
1944
2004
2035
2052
2047
2044
2040
2042
2050
2069
2098
2121
2122
2112
2083
2073
2065
2068
2075
2106
2130
2153
2158
2142
2126
2110
2105
2107
2118
2146
2168
2189
2189
2180
2160
2145
2142
2144
2149
2174
2192
2212
2219
2208
2187
2177
2170
2175
2183
2209
2232
2258
2261
2249
2236
2199
2213
2216
2223
2246
2276
2303
2311
2305
2290
2283
2277
2282
2293
2314
2337
2371
2378
2371
2352
2340
2330
2335
2343
2362
2387
2414
2423
2417
2400
2383
2375
2372
2375
2386
2407
2431
2434
2425
2397
2374
2356
2347
2346
2357
2372
2390
2398
2387
2351
2327
2301
2287
2276
2280
2284
2296
2293
2277
2245
2214
2181
2163
2154
2146
2147
2156
2157
2137
2105
2058
2053
2032
2018
2021
2024
2041
2044
2027
1996
1968
1944
1933
1928
1934
1952
1965
1975
1971
1949
1930
1906
1896
1889
1899
1917
1944
1954
1955
1937
1919
1896
1893
1890
1903
1919
1945
1964
1969
1950
1936
1914
1903
1904
1917
1935
1961
1976
1980
1966
1946
1926
1917
1919
1923
1946
1973
1996
1997
1981
1960
1940
1933
1930
1940
1952
1978
1992
2000
1981
1967
1947
1938
1935
1939
1957
1986
2006
2007
1994
1970
1950
1931
1924
1931
1944
1967
1986
1996
1989
1972
1943
1933
1922
1925
1933
1955
1972
1983
1975
1953
1933
1921
1915
1921
1933
1953
1972
1985
1979
1961
1937
1923
1915
1918
1930
1956
1981
1997
1989
1977
1956
1943
1940
1942
1951
1974
1998
2012
2007
1993
1968
1952
1940
1945
1958
1987
2014
2039
2041
2029
2011
1997
1997
1998
2017
2037
2062
2083
2082
2062
2033
2015
2001
1996
2036
2031
2049
2065
2063
2037
2004
1973
1949
1938
1933
1943
1957
1973
1969
1958
1945
1934
1919
1924
1934
1957
1980
1999
1998
1984
1961
1935
1923
1924
1927
1947
1967
1986
1990
1978
1956
1941
1925
1925
1929
1945
1960
1984
1989
1983
1961
1942
1925
1919
1933
1977
2040
2119
2187
2256
2326
2399
2486
2584
2670
2756
2801
2764
2617
2377
2093
1805
1547
1322
1157
1068
1045
1079
1140
1200
1271
1352
1446
1556
1657
1740
1811
1872
1912
1944
1964
1983
1996
2014
2030
2051
2072
2100
2098
2110
2096
2077
2068
2063
2068
2088
2113
2144
2162
2162
2140
2129
2116
2108
2109
2126
2146
2176
2191
2192
2176
2159
2146
2139
2144
2155
2172
2204
2221
2226
2211
2195
2175
2170
2171
2183
2206
2239
2260
2267
2253
2239
2219
2211
2210
2221
2245
2279
2301
2316
2305
2291
2272
2265
2262
2279
2298
2327
2352
2363
2360
2346
2332
2332
2337
2346
2370
2394
2417
2427
2414
2396
2381
2372
2372
2386
2403
2429
2451
2457
2442
2425
2401
2385
2377
2377
2388
2405
2420
2430
2410
2392
2363
2347
2334
2328
2333
2344
2358
2359
2335
2301
2272
2245
2228
2219
2216
2224
2227
2229
2203
2167
2132
2105
2096
2064
2063
2073
2078
2078
2058
2028
1999
1966
1953
1946
1951
1966
1983
1991
1974
1952
1924
1906
1891
1893
1897
1918
1939
1956
1951
1940
1919
1904
1894
1897
1906
1928
1949
1966
1957
1942
1919
1909
1901
1900
1911
1930
1953
1973
1968
1951
1930
1919
1909
1919
1921
1933
1962
1987
1984
1973
1949
1931
1919
1920
1926
1946
1968
1992
1992
1983
1962
1945
1934
1933
1937
1959
1981
2001
2004
1989
1969
1954
1938
1930
1936
1953
1974
1996
2001
1984
1965
1948
1929
1927
1933
1951
1971
1989
1992
1982
1956
1937
1926
1919
1925
1939
1957
1980
1988
1973
1952
1941
1923
1922
1924
1932
1958
1981
1988
1978
1960
1939
1931
1921
1926
1946
1966
1989
1994
1986
1961
1940
1928
1922
1923
1940
1963
1988
2004
1999
1979
1956
1939
1931
1936
1950
1969
1994
2007
2001
1980
1960
1940
1932
1930
1943
1961
1991
2006
2010
1994
1980
1965
1959
1957
1967
1984
2008
2019
2024
2005
1988
1978
1978
1982
2002
2027
2054
2076
2074
2060
2041
2017
2011
2012
2025
2042
2075
2087
2084
2065
2039
2024
2014
2012
2014
2029
2045
2050
2045
2013
1985
1955
1937
1931
1932
1946
1968
1984
1989
1974
1957
1938
1932
1927
1929
1945
1970
1989
2000
1985
1967
1948
1934
1926
1930
1944
1970
1989
2001
1991
1974
1950
1940
1933
1936
1948
1972
1991
2001
1988
1964
1945
1959
1996
2053
2137
2246
2361
2480
2580
2668
2743
2801
2809
2735
2571
2342
2075
1810
1553
1320
1133
1015
968
985
1050
1162
1282
1422
1549
1652
1723
1764
1795
1825
1869
1928
1984
2030
2052
2059
2046
2040
2033
2042
2057
2089
2102
2134
2130
2120
2104
2089
2085
2095
2104
2133
2155
2176
2178
2166
2147
2137
2132
2133
2140
2163
2186
2209
2211
2195
2174
2164
2155
2168
2163
2189
2213
2240
2247
2234
2215
2201
2196
2198
2204
2229
2254
2279
2290
2281
2265
2247
2239
2237
2242
2270
2291
2322
2329
2324
2310
2300
2293
2295
2301
2324
2349
2378
2394
2387
2375
2364
2358
2359
2366
2389
2414
2439
2449
2441
2420
2408
2395
2393
2397
2416
2437
2466
2470
2463
2438
2422
2403
2392
2388
2399
2412
2428
2428
2417
2391
2370
2342
2329
2319
2319
2336
2348
2349
2335
2303
2265
2233
2211
2197
2197
2200
2205
2200
2183
2151
2117
2084
2066
2051
2050
2058
2067
2062
2047
2021
1990
1965
1945
1936
1939
1951
1966
1975
1971
1954
1932
1918
1908
1900
1906
1925
1943
1955
1959
1943
1923
1903
1895
1890
1902
1920
1947
1969
1970
1959
1936
1919
1906
1903
1910
1932
1959
1974
1978
1960
1940
1919
1908
1910
1915
1934
1959
1976
1986
1969
1953
1935
1923
1922
1931
1947
1966
1987
1994
1978
1957
1939
1924
1923
1925
1939
1962
1982
1994
1976
1959
1937
1922
1919
1918
1929
1954
1972
1985
1972
1956
1935
1923
1922
1924
1940
1958
1976
1987
1974
1952
1934
1915
1910
1916
1922
1946
1968
1982
1974
1953
1937
1923
1907
1911
1921
1944
1967
1982
1977
1962
1942
1933
1916
1917
1927
1951
1969
1987
1981
1965
1942
1929
1916
1920
1931
1957
1976
1991
1987
1971
1948
1929
1919
1921
1934
1958
1981
1998
2001
1986
1958
1938
1927
1928
1935
1959
1982
2002
2007
1992
1972
1953
1942
1941
1945
1969
1992
2014
2013
2002
1976
1957
1945
1943
1951
1972
1997
2021
2032
2021
2004
1984
1972
1969
1970
1988
2011
2032
2035
2023
2005
1992
1989
1995
2005
2030
2057
2085
2080
2088
2073
2056
2045
2039
2043
2060
2073
2094
2093
2084
2061
2038
2026
2019
2020
2036
2047
2060
2059
2035
2002
1972
1948
1941
1932
1941
1956
1978
1993
1988
1962
1948
1933
1934
1933
1946
1966
1991
2002
1996
1975
1956
1942
1938
1936
1948
1965
1992
2004
1999
1979
1964
1949
1945
1946
1958
1980
2005
2016
2012
1987
1962
1951
1966
2008
2072
2150
2253
2358
2456
2540
2633
2708
2781
2804
2753
2615
2403
2145
1882
1621
1386
1199
1068
1012
1019
1078
1172
1286
1402
1509
1615
1691
1749
1786
1823
1884
1932
1989
2032
2047
2052
2049
2049
2047
2051
2068
2092
2115
2130
2121
2104
2089
2089
2090
2101
2124
2150
2171
2180
2168
2151
2133
2128
2123
2133
2153
2182
2206
2215
2208
2194
2173
2161
2157
2159
2179
2210
2229
2244
2234
2222
2200
2171
2182
2193
2215
2243
2272
2290
2282
2270
2251
2233
2231
2242
2251
2274
2298
2311
2315
2302
2283
2275
2270
2280
2300
2331
2358
2382
2377
2368
2350
2341
2339
2349
2365
2394
2418
2438
2435
2420
2406
2393
2385
2391
2402
2425
2447
2464
2460
2442
2421
2403
2387
2384
2388
2417
2445
2469
2470
2458
2433
2411
2392
2381
2376
2380
2395
2404
2392
2367
2336
2300
2275
2263
2257
2266
2278
2282
2269
2238
2198
2168
2134
2122
2112
2119
2130
2140
2131
2105
2070
2039
2016
2004
2000
2009
2021
2032
2028
2007
1983
1961
1945
1940
1942
1959
1977
2002
2003
1996
1973
1952
1932
1928
1928
1939
1961
1983
1991
1984
1967
1951
1936
1937
1941
1963
1982
2003
2011
1998
1975
1963
1948
1951
1956
1974
1997
2015
2024
2014
1992
1976
1961
1955
1959
1975
1995
2015
2024
2016
1994
1969
1950
1948
1950
1969
1983
1991
2021
2020
2000
1980
1960
1953
1955
1964
1981
2002
2009
2002
1983
1966
1949
1945
1943
1955
1972
1997
2008
2003
1985
1964
1944
1937
1935
1936
1956
1973
1998
2001
1983
1967
1944
1934
1926
1934
1954
1976
1999
1996
1978
1961
1941
1934
1927
1932
1948
1968
1987
1993
1979
1963
1940
1929
1923
1929
1943
1965
1986
1997
1982
1961
1946
1938
1930
1932
1940
1967
1984
1997
1985
1965
1941
1937
1933
1940
1950
1977
1990
2005
1992
1977
1955
1939
1931
1936
1953
1977
1993
2006
1998
1983
1967
1959
1953
1957
1966
1995
2019
2029
2025
2014
1992
1980
1969
1972
1984
2007
2030
2043
2032
2017
1992
1978
1980
1997
2017
2054
2083
2099
2095
2081
2054
2045
2035
2036
2044
2066
2084
2095
2087
2067
2038
2020
2006
2008
2013
2030
2047
2056
2044
2020
1993
1969
1948
1943
1941
1957
1976
1994
1994
1979
1961
1944
1937
1938
1945
1966
1986
2001
1999
1986
1960
1943
1932
1934
1944
1963
1981
2007
2009
1989
1969
1951
1942
1943
1949
1966
1992
2012
2011
1997
1983
1981
1995
2033
2082
2153
2234
2328
2414
2486
2547
2596
2642
2656
2601
2475
2293
2092
1877
1662
1453
1288
1176
1119
1114
1162
1237
1332
1427
1520
1598
1677
1741
1792
1841
1877
1927
1985
2029
2055
2065
2067
2061
2067
2067
2078
2096
2113
2119
2115
2101
2089
2082
2082
2085
2103
2127
2166
2168
2166
2147
2128
2112
2106
2106
2116
2144
2170
2189
2191
2177
2162
2146
2144
2140
2157
2181
2205
2221
2223
2211
2197
2186
2182
2183
2200
2218
2244
2264
2268
2257
2243
2224
2215
2218
2232
2255
2287
2305
2304
2292
2277
2264
2264
2270
2279
2301
2327
2345
2355
2344
2334
2312
2309
2315
2327
2349
2374
2397
2407
2396
2381
2359
2356
2353
2359
2381
2404
2428
2432
2418
2394
2373
2356
2347
2349
2359
2384
2401
2411
2388
2365
2334
2317
2298
2292
2298
2315
2327
2325
2300
2271
2244
2221
2202
2192
2191
2205
2212
2211
2185
2157
2125
2091
2071
2063
2059
2076
2082
2081
2064
2037
2003
1977
1955
1953
1954
1977
1997
2008
1996
1981
1955
1934
1923
1916
1921
1942
1962
1975
1971
1957
1933
1916
1904
1904
1915
1936
1961
1976
1976
1963
1940
1922
1914
1915
1925
1948
1967
1991
1990
1969
1945
1928
1921
1921
1940
1950
1978
1997
1998
1984
1965
1949
1945
1942
1945
1965
1985
2003
2002
1983
1961
1938
1931
1934
1940
1964
1986
2008
2009
1995
1972
1954
1941
1939
1935
1954
1979
1993
2000
1984
1965
1948
1933
1933
1933
1947
1965
1987
1993
1980
1961
1942
1926
1928
1927
1948
1971
1989
1996
1983
1961
1946
1930
1931
1930
1947
1969
1988
1996
1987
1970
1953
1942
1935
1933
1949
1967
1991
2004
1994
1979
1972
1942
1939
1942
1958
1977
2003
2011
2003
1985
1963
1942
1938
1936
1949
1970
1995
2009
2008
1988
1968
1945
1945
1943
1957
1975
1998
2012
2013
1988
1964
1949
1940
1941
1953
1973
1999
2016
2013
2002
1985
1968
1963
1969
1972
1992
2015
2034
2034
2014
1995
1977
1979
1984
2003
2031
2061
2077
2082
2069
2053
2034
2034
2031
2046
2066
2087
2105
2104
2082
2052
2025
2016
2010
2021
2042
2065
2076
2068
2042
2005
1978
1958
1943
1943
1955
1975
1994
2003
1987
1974
1954
1939
1935
1945
1959
1986
2004
2017
2005
1988
1962
1951
1944
1948
1960
1981
2000
2011
2002
1986
1967
1956
1951
1955
1969
1990
2010
2015
2005
1989
1991
2014
2052
2117
2199
2307
2416
2528
2611
2679
2725
2745
2707
2588
2396
2175
1949
1731
1515
1328
1184
1096
1069
1096
1162
1261
1377
1495
1598
1689
1744
1784
1812
1843
1887
1950
2010
2063
2080
2079
2065
2056
2047
2047
2057
2082
2103
2129
2127
2116
2102
2087
2086
2090
2103
2128
2152
2175
2173
2156
2142
2128
2121
2122
2129
2159
2179
2197
2203
2187
2168
2154
2145
2146
2152
2177
2201
2222
2232
2221
2201
2188
2179
2176
2184
2207
2233
2258
2261
2254
2236
2226
2211
2216
2226
2251
2280
2306
2310
2288
2284
2274
2262
2266
2276
2302
2331
2360
2365
2360
2347
2334
2325
2329
2332
2356
2384
2408
2418
2411
2394
2375
2363
2360
2363
2380
2404
2425
2431
2415
2391
2365
2349
2341
2337
2348
2363
2382
2387
2374
2346
2317
2295
2282
2276
2285
2299
2317
2314
2293
2261
2223
2195
2176
2164
2162
2168
2175
2172
2153
2115
2083
2055
2037
2025
2028
2037
2045
2051
2035
1999
1974
1945
1928
1920
1931
1949
1969
1969
1967
1944
1921
1896
1887
1882
1893
1915
1937
1956
1943
1929
1907
1891
1881
1882
1899
1918
1941
1957
1962
1939
1919
1904
1905
1897
1908
1930
1950
1971
1974
1957
1936
1921
1913
1919
1929
1949
1973
1986
1991
1972
1956
1939
1930
1928
1934
1951
1978
1996
1999
1983
1964
1947
1933
1932
1947
1956
1992
1995
1999
1980
1961
1941
1930
1928
1939
1952
1979
1993
2000
1983
1964
1945
1935
1924
1931
1945
1970
1986
1987
1974
1956
1935
1922
1918
1922
1930
1955
1975
1986
1974
1958
1935
1920
1916
1919
1934
1956
1979
1993
1984
1963
1940
1926
1916
1921
1935
1958
1980
1992
1985
1969
1941
1929
1919
1926
1934
1957
1981
1992
1987
1964
1941
1927
1920
1920
1932
1956
1977
1991
1988
1976
1952
1934
1923
1930
1940
1966
1988
2007
2004
1989
1964
1947
1933
1933
1942
1967
1988
2007
2004
1989
1964
1949
1941
1940
1943
1969
1990
2007
2008
1996
1977
1959
1954
1955
1968
1989
2016
2033
2034
2019
1998
1975
1966
1965
1969
1991
2017
2046
2057
2053
2042
2030
2018
2019
2023
2044
2069
2093
2093
2080
2061
2046
2029
2027
2025
2044
2062
2084
2085
2077
2053
2036
2017
2010
2000
2001
2013
2024
2018
1998
1969
1952
1938
1937
1942
1962
1984
2012
2017
2006
1982
1959
1948
1944
1943
1964
1986
2009
2017
2008
1987
1969
1954
1948
1953
1967
1990
2011
2019
2010
1989
1972
1959
1953
1960
1996
2054
2126
2196
2262
2329
2409
2492
2592
2687
2786
2851
2845
2715
2487
2184
1877
1600
1369
1184
1069
1022
1041
1098
1170
1245
1339
1448
1573
1674
1757
1819
1880
1922
1955
1971
1989
2001
2014
2025
2044
2072
2100
2119
2122
2108
2093
2076
2077
2079
2094
2119
2148
2169
2175
2158
2146
2127
2126
2124
2138
2160
2188
2207
2211
2194
2180
2163
2155
2153
2167
2190
2220
2243
2243
2228
2214
2192
2187
2179
2193
2215
2243
2261
2272
2261
2247
2228
2217
2217
2234
2247
2280
2301
2312
2300
2288
2266
2261
2265
2275
2295
2326
2347
2364
2351
2341
2322
2317
2315
2328
2349
2382
2409
2431
2415
2402
2386
2375
2375
2380
2396
2427
2449
2465
2459
2439
2414
2397
2390
2395
2401
2424
2443
2452
2440
2420
2389
2371
2351
2347
2350
2368
2378
2383
2366
2337
2305
2284
2265
2252
2248
2256
2262
2269
2246
2217
2185
2154
2132
2122
2113
2117
2121
2125
2108
2082
2046
2021
1996
1983
1984
1991
1999
2008
1999
1973
1943
1923
1911
1907
1910
1924
1939
1952
1950
1935
1909
1892
1885
1883
1892
1915
1938
1954
1953
1938
1919
1873
1895
1887
1896
1921
1940
1965
1965
1953
1935
1920
1911
1913
1919
1942
1962
1982
1986
1971
1950
1929
1916
1916
1923
1942
1964
1987
1989
1975
1954
1937
1920
1919
1922
1943
1963
1987
1986
1970
1950
1928
1919
1915
1918
1937
1956
1977
1987
1974
1950
1930
1911
1913
1910
1926
1949
1975
1981
1973
1956
1932
1917
1915
1913
1932
1951
1970
1979
1974
1950
1925
1912
1908
1910
1923
1945
1970
1981
1967
1951
1934
1918
1915
1916
1930
1949
1975
1986
1983
1961
1943
1923
1919
1919
1936
1954
1981
1992
1989
1968
1946
1930
1922
1921
1930
1952
1981
1995
1993
1978
1956
1939
1931
1928
1938
1959
1981
1996
1998
1987
1965
1946
1938
1931
1943
1965
1992
2009
2008
1991
1972
1953
1941
1941
1951
1967
1989
2015
2014
1997
1973
1955
1950
1949
1957
1973
2003
2021
2028
2017
2004
1989
1979
1972
1978
1990
2015
2032
2037
2023
2009
1998
1998
2005
2021
2044
2067
2081
2093
2074
2058
2037
2031
2027
2032
2048
2073
2091
2100
2084
2061
2035
2019
2016
2021
2034
2049
2066
2061
2035
2005
1970
1947
1930
1928
1929
1960
1980
1998
1989
1973
1954
1939
1934
1935
1948
1968
1990
2004
1993
1978
1955
1940
1928
1935
1950
1972
1990
2003
1994
1982
1962
1946
1939
1942
1955
1973
1989
2010
2020
2041
2068
2113
2178
2273
2378
2503
2631
2748
2826
2855
2803
2650
2412
2133
1857
1619
1413
1241
1110
1018
983
1002
1060
1154
1278
1431
1581
1712
1794
1821
1833
1839
1858
1897
1936
1989
2039
2078
2089
2080
2066
2047
2034
2039
2044
2067
2093
2119
2133
2130
2116
2112
2103
2103
2110
2133
2158
2181
2191
2178
2157
2145
2135
2137
2143
2163
2192
2217
2222
2211
2187
2171
2159
2166
2169
2192
2216
2241
2254
2244
2228
2211
2199
2199
2203
2222
2246
2277
2289
2281
2273
2257
2241
2242
2248
2269
2296
2322
2337
2337
2325
2308
2294
2298
2301
2325
2351
2380
2400
2401
2389
2376
2358
2361
2362
2379
2398
2423
2438
2433
2416
2404
2389
2387
2388
2401
2425
2449
2459
2452
2429
2407
2383
2371
2356
2371
2388
2409
2417
2410
2384
2353
2323
2308
2297
2308
2309
2317
2321
2311
2277
2239
2207
2188
2174
2170
2181
2189
2189
2179
2146
2111
2078
2052
2035
2033
2039
2051
2054
2046
2019
1988
1955
1937
1928
1933
1941
1957
1968
1971
1947
1928
1905
1900
1896
1903
1921
1942
1959
1963
1947
1936
1912
1901
1893
1899
1921
1948
1966
1973
1959
1935
1915
1905
1902
1910
1928
1956
1976
1987
1976
1957
1934
1919
1914
1916
1930
1956
1978
1990
1982
1956
1930
1917
1911
1919
1932
1958
1980
1990
1977
1959
1934
1917
1910
1911
1925
1947
1968
1986
1975
1960
1936
1927
1918
1921
1933
1957
1975
1991
1979
1962
1938
1920
1910
1911
1921
1940
1964
1980
1972
1959
1936
1918
1910
1909
1915
1935
1959
1974
1973
1959
1937
1922
1912
1915
1923
1946
1971
1990
1990
1973
1952
1938
1924
1921
1922
1943
1969
1988
1992
1979
1958
1938
1928
1923
1930
1953
1974
1998
2003
1983
1957
1935
1926
1927
1939
1958
1985
2007
2007
1991
1965
1951
1940
1942
1947
1963
1987
2008
2017
2007
1989
1967
1953
1950
1955
1971
1996
2022
2027
2012
1988
1976
1966
1963
1969
1985
2012
2036
2044
2038
2018
1996
1987
1991
1994
2018
2051
2082
2093
2091
2072
2051
2037
2038
2038
2051
2068
2091
2096
2090
2062
2035
2013
2009
2006
2017
2031
2048
2047
2028
2000
1970
1942
1927
1926
1938
1960
1979
1995
1996
1976
1959
1941
1937
1934
1945
1962
1992
2002
1999
1982
1964
1947
1938
1934
1946
1968
1990
2002
2003
1981
1963
1946
1936
1929
1940
1955
1975
1997
2010
2016
2035
2063
2110
2170
2255
2354
2460
2561
2642
2688
2711
2673
2560
2371
2158
1944
1748
1561
1388
1245
1149
1100
1101
1139
1204
1304
1422
1547
1663
1741
1800
1821
1843
1863
1900
1949
2010
2064
2095
2098
2086
2063
2050
2044
2053
2076
2104
2130
2146
2139
2123
2104
2093
2092
2096
2114
2137
2157
2166
2161
2151
2134
2123
2120
2126
2137
2166
2183
2202
2191
2179
2157
2147
2143
2150
2167
2191
2220
2240
2236
2221
2203
2188
2189
2193
2201
2226
2254
2276
2267
2256
2235
2224
2223
2236
2249
2278
2299
2323
2322
2315
2297
2284
2277
2283
2296
2318
2343
2369
2372
2363
2350
2340
2335
2339
2350
2378
2401
2423
2425
2407
2393
2377
2368
2373
2373
2393
2412
2429
2431
2415
2389
2367
2346
2345
2346
2368
2385
2398
2397
2378
2348
2353
2303
2297
2285
2294
2304
2313
2304
2277
2240
2213
2188
2176
2167
2169
2180
2184
2178
2151
2115
2085
2060
2044
2033
2043
2052
2065
2057
2035
2005
1975
1953
1946
1947
1959
1973
1990
1994
1974
1949
1929
1916
1910
1912
1925
1941
1958
1965
1955
1932
1917
1898
1893
1895
1915
1936
1965
1980
1973
1953
1949
1919
1914
1916
1933
1959
1986
2001
1995
1978
1956
1935
1932
1932
1945
1966
1989
2002
1998
1978
1962
1943
1937
1938
1951
1966
1995
2009
2006
1990
1967
1952
1945
1941
1954
1971
1995
2010
2006
1983
1961
1943
1936
1935
1943
1959
1979
1996
1999
1978
1957
1939
1931
1926
1933
1949
1976
1988
1990
1971
1951
1932
1920
1917
1930
1942
1972
1988
1993
1976
1962
1941
1930
1927
1927
1944
1969
1988
1996
1973
1955
1934
1923
1919
1930
1943
1962
1983
1993
1980
1963
1942
1933
1928
1939
1943
1971
1988
2000
1989
1973
1955
1939
1934
1939
1954
1977
1998
2009
1996
1975
1956
1944
1940
1951
1965
1995
2021
2034
2020
2000
1980
1967
1962
1960
1975
2004
2031
2054
2049
2047
2029
2013
2008
2014
2024
2049
2075
2088
2086
2073
2049
2030
2021
2017
2028
2052
2067
2082
2078
2056
2031
2007
1983
1967
1965
1977
1993
1997
1987
1963
1941
1926
1922
1926
1934
1957
1977
1996
1994
1975
1951
1940
1929
1931
1941
1963
1983
2003
2005
1987
1967
1947
1931
1932
1935
1956
1975
1996
1998
1985
1967
1955
1943
1957
1991
2051
2126
2206
2283
2356
2425
2503
2585
2664
2735
2775
2733
2597
2369
2095
1816
1563
1341
1170
1071
1034
1060
1127
1198
1271
1356
1454
1559
1656
1736
1801
1853
1912
1950
1975
1994
2009
2019
2032
2040
2062
2084
2104
2114
2110
2095
2083
2078
2079
2088
2111
2138
2169
2180
2172
2149
2132
2118
2115
2120
2140
2163
2187
2199
2202
2179
2163
2146
2147
2150
2166
2187
2218
2231
2228
2209
2191
2177
2176
2176
2191
2210
2242
2261
2261
2245
2230
2217
2214
2219
2236
2253
2284
2306
2308
2296
2284
2271
2280
2270
2285
2306
2338
2372
2365
2350
2339
2321
2318
2322
2339
2359
2389
2411
2423
2408
2390
2376
2369
2368
2377
2396
2423
2439
2440
2429
2407
2381
2376
2368
2373
2385
2407
2421
2424
2397
2377
2352
2339
2327
2329
2333
2353
2364
2356
2335
2304
2266
2244
2229
2219
2223
2236
2239
2234
2205
2168
2139
2117
2099
2092
2094
2103
2110
2105
2080
2048
2011
1988
1969
1964
1966
1982
1996
1999
1982
1955
1930
1908
1894
1893
1903
1927
1947
1960
1951
1933
1911
1895
1892
1895
1908
1929
1949
1967
1956
1944
1918
1906
1896
1901
1918
1941
1964
1979
1977
1960
1943
1925
1917
1918
1931
1953
1974
1999
1992
1981
1960
1948
1939
1937
1946
1970
1989
2003
1994
1980
1955
1941
1928
1932
1922
1958
1983
2002
1998
1985
1961
1942
1931
1929
1940
1957
1978
1998
1996
1978
1951
1934
1919
1918
1926
1947
1963
1985
1988
1971
1950
1931
1915
1918
1916
1938
1956
1976
1981
1962
1943
1920
1905
1908
1912
1933
1955
1975
1983
1967
1942
1922
1909
1905
1912
1932
1953
1983
1986
1977
1955
1933
1915
1909
1914
1930
1947
1975
1984
1976
1955
1936
1921
1922
1928
1946
1965
1988
1993
1985
1964
1946
1926
1922
1926
1941
1960
1987
2002
1991
1974
1953
1936
1933
1940
1954
1977
2004
2015
2013
1991
1980
1966
1969
1968
1981
1997
2023
2037
2031
2013
1997
1987
1991
1998
2020
2043
2071
2086
2087
2071
2053
2030
2020
2023
2036
2059
2082
2100
2094
2072
2048
2029
2018
2014
2022
2046
2066
2069
2063
2025
1999
1965
1948
1938
1940
1954
1973
1988
1992
1976
1958
1939
1930
1927
1932
1953
1976
1998
2004
1987
1979
1948
1942
1939
1942
1957
1982
1999
2004
1990
1967
1942
1931
1928
1936
1950
1976
1994
2006
2012
2024
2048
2096
2162
2252
2365
2491
2621
2734
2805
2844
2808
2683
2467
2199
1932
1694
1477
1287
1130
1026
979
990
1051
1142
1257
1411
1561
1692
1767
1804
1814
1829
1851
1899
1951
2001
2052
2084
2084
2069
2052
2046
2045
2050
2064
2092
2118
2139
2133
2125
2105
2100
2092
2105
2116
2144
2168
2183
2175
2161
2148
2134
2130
2137
2152
2175
2197
2216
2212
2195
2179
2171
2165
2168
2177
2199
2222
2248
2249
2235
2219
2209
2202
2205
2217
2241
2266
2288
2285
2277
2257
2243
2236
2237
2252
2280
2310
2339
2341
2337
2324
2311
2304
2306
2316
2347
2373
2392
2404
2396
2381
2365
2360
2359
2371
2397
2420
2444
2450
2444
2424
2402
2392
2389
2394
2418
2435
2455
2456
2444
2415
2392
2377
2373
2370
2384
2403
2416
2417
2397
2371
2346
2322
2312
2303
2315
2327
2335
2331
2309
2269
2233
2204
2188
2173
2178
2182
2189
2179
2159
2122
2088
2054
2041
2028
2028
2035
2051
2049
2030
1998
1972
1946
1934
1930
1935
1951
1968
1975
1962
1935
1916
1894
1888
1887
1900
1923
1948
1961
1953
1936
1913
1892
1888
1888
1898
1920
1946
1960
1956
1940
1920
1906
1904
1903
1917
1936
1957
1972
1968
1950
1932
1918
1915
1910
1923
1945
1970
1987
1982
1967
1946
1919
1914
1913
1926
1948
1975
1992
1993
1979
1959
1933
1923
1921
1927
1949
1977
1996
2000
1978
1958
1936
1926
1934
1926
1945
1969
1982
1985
1971
1954
1933
1922
1914
1922
